Time[s],Signal A,Signal B,Signal C,Sensor A,Sensor B,Sensor C,Sensor D
80.0,308.4758943704661,308.0375860314636,316.07196816906355,557.4108703890636,413.0072006262509,323.75792046906355,442.6339827090636
80.01,308.3808591074671,308.0375860314636,316.07196816906355,557.4108703890636,413.802243730512,323.75792046906355,442.6339827090636
80.02,308.3048973036957,308.01198668633634,316.07196816906355,556.4798064249652,410.2155090318449,324.65654766486864,442.18466808636737
80.03,308.256799638996,307.945401744371,316.07196816906355,556.3860767490636,411.5214896499626,326.00286621024406,442.5283039393194
80.04,308.20233185702995,307.87614209100525,316.07196816906355,555.3612831090636,410.9619031324279,325.4754910064018,443.65877634906354
80.05,308.16763439396686,307.82744389723246,316.07196816906355,555.3612831090636,411.79547437837846,327.5594170716909,443.65877634906354
80.06,308.1068538831785,307.773595090625,316.07196816906355,555.3514819826906,408.8353968913968,327.3471987055452,443.1488800255451
80.07,308.03926464344585,307.6879407886065,316.07196816906355,554.9599452254176,409.6184683563554,328.5143915209977,443.9261757535488
80.08,307.97739170263725,307.597601130066,316.07196816906355,552.8346051995488,408.1268689158117,328.97595652686647,446.3383452713172
80.09,307.9288144345139,307.5149166800162,316.07196816906355,553.2410568034584,406.09460269791504,330.60205808307285,448.3709722165751
80.1,307.8744122393409,307.4200781773961,316.07196816906355,554.6617118298922,405.7882057962533,331.0366546195113,450.3900534394997
80.11,307.7995428655898,307.3817181018636,316.07196816906355,553.0352167529279,406.1948295654943,332.25592129898683,451.2028992588748
80.12,307.7442818933464,307.3303144528812,316.07196816906355,551.3975227310658,405.786549729731,331.5659195428257,455.4070926215147
80.13,307.676803331327,307.2869697810837,316.07196816906355,552.5209712052014,404.9021692151092,332.6631394485391,457.5819896182267
80.14,307.6481644482635,307.21521373041094,316.07196816906355,550.8448043805065,405.0863758718992,333.1586763635738,460.44622225523375
80.15,307.6079064549098,307.17675937386355,316.07196816906355,551.6786830645491,403.8355598954227,335.24336897450564,465.032548868706
80.16,307.5732561323541,307.1510821444197,316.07196816906355,555.2635423908549,400.6174434690636,333.5026831918236,467.22211271199353
80.17,307.5530717968207,307.12322415410995,316.07196816906355,551.3450676438089,400.6174434690636,335.44481675949504,469.1803867794949
80.18,307.5059866282372,307.0899839476029,316.07196816906355,550.7497117290635,397.9852917485328,334.96052183069105,473.5414268583242
80.19,307.4841974658636,307.0486868134982,316.07196816906355,550.7497117290635,397.172902987121,333.7421057299368,476.3843950273012
80.2,307.430611006428,307.03328826426355,316.07196816906355,550.7029708911432,397.077406566984,336.60279872971125,477.7566326534196
80.21,307.4022139746636,307.02046809582714,316.07196816906355,550.2964741963135,397.4839032618136,337.0094224989523,481.0096269065224
80.22,307.3753930755175,306.99995992550345,316.07196816906355,550.2373149090636,393.2096263117214,337.0802377890636,482.5068770591971
80.23,307.3612222290636,306.9538954513855,316.07196816906355,549.8048581417454,392.4990344017454,337.4993783878235,483.8583564653436
80.24,307.3612222290636,306.9179866822399,316.07196816906355,548.7001244490635,390.5411436070653,338.5448093221459,484.1744335677288
80.25,307.3612222290636,306.8846091533851,316.07196816906355,548.7001244490635,387.5572048249699,337.69207853430186,484.6007989616508
80.26,307.3612222290636,306.8693212818636,316.07196816906355,549.6711061750271,385.1809645722199,338.6136057687864,484.1400373939958
80.27,307.34791425885453,306.8693212818636,316.07196816906355,547.5776679751716,382.6688387323932,339.015468346776,484.1381251290636
80.28,307.3407263562636,306.8565544026964,316.07196816906355,547.0547014335685,378.5122244888712,340.2271884458865,483.0649509813192
80.29,307.3407263562636,306.8488254090636,316.07196816906355,545.8102166322,377.68256795462537,341.4712715281483,482.23556294300704
80.3,307.3407263562636,306.8488254090636,316.07196816906355,546.6505371690636,374.7652243624317,341.6918091690636,481.610811847492
80.31,307.3407263562636,306.8488254090636,316.07196816906355,546.6505371690636,372.7322510369234,341.6918091690636,482.0174212696221
80.32,307.3407263562636,306.8488254090636,316.07196816906355,546.6505371690636,369.0650638887544,343.55154727849174,480.6937342669924
80.33,307.3407263562636,306.79761852046005,316.07196816906355,546.2189125341811,368.4172159941811,342.9048655990807,478.87828773868506
80.34,307.3407263562636,306.7668419178636,316.07196816906355,546.6031363640391,365.1672633286017,344.2537932690636,478.3960895376686
80.35,307.3407263562636,306.7668419178636,316.07196816906355,546.1859367244332,364.3328599502155,344.2537932690636,477.1440786518078
80.36,307.3407263562636,306.7668419178636,316.07196816906355,546.6505371690636,363.1313529445212,346.80655422630355,475.4329130747196
80.37,307.3407263562636,306.7668419178636,316.07196816906355,546.6505371690636,360.00142411005857,345.25565612657493,474.6473185678192
80.38,307.3274983199584,306.7668419178636,316.07196816906355,547.5353952375216,357.3312238512619,347.79434666713775,473.7746268494553
80.39,307.32023048346355,306.7668419178636,316.07196816906355,545.9105172849213,354.487685897021,346.9820521867409,471.7438896236695
80.4,307.32023048346355,306.7668419178636,316.07196816906355,547.1629339890635,351.79962553466635,347.98035081197224,471.2932591659396
80.41,307.2669822059292,306.7668419178636,316.07196816906355,547.1629339890635,350.58133650832343,349.6052185166361,470.8870432645673
80.42,307.2382469922636,306.7668419178636,316.07196816906355,545.7624202568304,350.86939370300377,351.2434167369691,469.0114638950519
80.43,307.2382469922636,306.7668419178636,316.07196816906355,546.88345431715,350.07647807033925,350.6150665661903,468.7662205290636
80.44,307.21142404353026,306.7668419178636,316.07196816906355,547.6278172767386,347.28066065673863,352.4875531085001,467.6351947307539
80.45,307.1972552466636,306.7668419178636,316.07196816906355,547.2110378025251,346.8638811825252,352.90434283065,466.3848276138916
80.46,307.15706898886464,306.7668419178636,316.07196816906355,548.1979366233052,346.2931715548219,354.49726156879314,465.69332965901606
80.47,307.1357676282635,306.7668419178636,316.07196816906355,548.5884178431289,345.90269033499817,354.11228144122896,466.0812878368982
80.48,307.1093074564788,306.7668419178636,316.07196816906355,551.1909612258129,347.87614364589524,355.0141264890636,465.6208111618752
80.49,307.08140437524884,306.7668419178636,316.07196816906355,550.3596814184414,348.291783549581,355.0141264890636,464.37411895500594
80.5,307.0742800098636,306.7668419178636,316.07196816906355,551.6358384920479,344.9510792584178,355.6647741198614,462.5828964987609
80.51,307.0742800098636,306.7540217494272,316.07196816906355,550.4138950515846,346.58033717903544,357.2938045362909,462.1756373574631
80.52,307.0742800098636,306.74634604506355,316.07196816906355,551.6383143934821,346.3487768577283,356.67359122701384,462.1050618690636
80.53,307.0742800098636,306.72083073301485,316.07196816906355,552.6137765172398,345.8837459997691,356.9576168835144,461.6987619346127
80.54,307.060902353687,306.6797590535109,316.07196816906355,553.8240926490636,346.30338054906355,356.69218918199255,460.9393959961346
80.55,307.0537841370636,306.61298554951577,316.07196816906355,553.8240926490636,346.30338054906355,358.3615206331087,459.2700645450184
80.56,307.0537841370636,306.56952200165614,316.07196816906355,553.8544449870931,345.248234571034,357.57936943283875,459.03068094906354
80.57,307.0537841370636,306.5368085390801,316.07196816906355,555.027173737789,344.0755058203382,357.57611058906355,458.251130675052
80.58,307.0537841370636,306.48292898866345,316.07196816906355,553.8933338561437,345.31320648781,357.6906394766827,458.0058873090636
80.59,307.0537841370636,306.3953747192364,316.07196816906355,554.7065137582457,345.71979746365463,359.7235861575564,458.0058873090636
80.6,307.0537841370636,306.3569244618636,316.07196816906355,552.9348710092864,343.87696844928644,359.21442973504605,458.0058873090636
80.61,307.0537841370636,306.3312841249908,316.07196816906355,554.1298234348594,345.07192087485936,360.4095932681088,458.0058873090636
80.62,307.0537841370636,306.27737178117764,316.07196816906355,555.7341194319938,344.3468342836391,360.2008325557044,458.0058873090636
80.63,307.0537841370636,306.2544450978636,316.07196816906355,557.5524538287787,343.834099281738,360.1380946890636,458.0058873090636
80.64,307.0537841370636,306.2544450978636,316.07196816906355,557.4108703890636,343.8365239434902,360.1380946890636,458.0769669959339
80.65,307.0537841370636,306.2416208302526,316.07196816906355,557.4108703890636,344.6704743630876,360.1380946890636,458.91093381222953
80.66,307.0135404908208,306.23394922506355,316.07196816906355,558.4676314418697,341.71312077760103,359.6265955882922,459.03068094906354
80.67,306.9922965186635,306.23394922506355,316.07196816906355,559.638218373858,342.4935113823974,359.6256978690636,460.5890846374116
80.68,306.9922965186635,306.23394922506355,316.07196816906355,559.4604576690635,343.1574874792771,358.6009042290636,461.7119264337122
80.69,306.9789619038199,306.23394922506355,316.07196816906355,559.4604576690635,342.3260990437797,358.6009042290636,463.7904825803277
80.7,306.9718006458636,306.2467468480399,316.07196816906355,558.6156423872949,341.8267929377371,357.6096869278845,462.68460931711815
80.71,306.9450330359868,306.2544450978636,316.07196816906355,560.2101987456749,343.0227086693316,358.00806110832355,463.4813617771708
80.72,306.9308089002636,306.2544450978636,316.07196816906355,559.5534802373536,342.7631140932086,356.28967893442245,464.0919584229302
80.73,306.890889088811,306.2544450978636,316.07196816906355,561.5603151762801,341.45668871465114,357.6664010575094,465.37526035779473
80.74,306.8693212818636,306.2544450978636,316.07196816906355,560.439154041549,341.73790643657804,355.5265233090636,466.7822220916108
80.75,306.8693212818636,306.2544450978636,316.07196816906355,560.0312677265435,342.14579275158354,355.5265233090636,467.56140343991206
80.76,306.8425393248758,306.2672591175381,316.07196816906355,562.0450897085076,341.1907363187856,354.50429985151266,467.7414268890636
80.77,306.8150523098637,306.3003599521101,316.07196816906355,562.8821923933416,341.6092886859962,354.9002473206122,468.5384642417481
80.78,306.80783366346355,306.3159327162636,316.07196816906355,561.2452423716621,342.64586130409435,355.94502033741765,469.3490411680044
80.79,306.80783366346355,306.3159327162636,316.07196816906355,564.1552217967587,341.81443802561324,354.2822086234392,470.59615149067866
80.8,306.80783366346355,306.3159327162636,316.07196816906355,563.139784522692,341.9694565099488,355.0141264890636,468.7662205290636
80.81,306.80783366346355,306.3159327162636,316.07196816906355,563.9545426069994,344.41372871328383,355.0141264890636,468.7662205290636
80.82,306.80783366346355,306.3159327162636,316.07196816906355,564.0720290490635,342.84430439413126,355.47853427248964,468.3018127456375
80.83,306.80783366346355,306.3159327162636,316.07196816906355,565.3678293671616,343.5804690045998,355.5265233090636,467.8351483666161
80.84,306.80783366346355,306.3159327162636,316.07196816906355,564.1205386808066,345.13305596424715,355.9663012021459,468.21751322081104
80.85,306.80783366346355,306.3159327162636,316.07196816906355,564.5468446366975,343.8541421957491,355.11399262928154,467.7913609839662
80.86,306.80783366346355,306.3159327162636,316.07196816906355,565.107043980829,344.2537932690636,354.50324841323805,465.1870385595232
80.87,306.80783366346355,306.32845979371893,316.07196816906355,565.4977158122698,344.2537932690636,355.67083679903567,465.1794427890636
80.88,306.80783366346355,306.3490663442321,316.07196816906355,564.0720290490635,345.17863878535434,355.5051481633205,464.1546491490636
80.89,306.80783366346355,306.3569244618636,316.07196816906355,564.0720290490635,343.9270624119969,355.0880141105075,464.1546491490636
80.9,306.80783366346355,306.3569244618636,316.07196816906355,566.49795949583,343.696045231319,354.6033400080568,462.5835892592616
80.91,306.76771709163216,306.3569244618636,316.07196816906355,565.3020396650608,343.2974046045336,355.7994463512684,462.1848871448577
80.92,306.74634604506355,306.3569244618636,316.07196816906355,564.1668347582872,343.69399359445174,355.14105537972665,461.6561284696015
80.93,306.74634604506355,306.3569244618636,316.07196816906355,565.3303936554923,342.0635776570209,354.6078450008983,461.5926650490636
80.94,306.74634604506355,306.3569244618636,316.07196816906355,565.0968226890635,342.71660280906355,355.93451620260765,460.5330694170492
80.95,306.7195743360122,306.4081620942763,316.07196816906355,565.0968226890635,342.71660280906355,354.68295212677384,460.115882074967
80.96,306.7053542994636,306.4517445181982,316.07196816906355,565.128140382702,342.1728882954252,355.523817853854,459.5444304966683
80.97,306.66607395924234,306.45940382586355,316.07196816906355,566.2999878108675,341.0010408672597,354.7468377622915,459.9329215672432
80.98,306.5909237920339,306.48468753454966,316.07196816906355,567.6933689793661,342.1005194181556,355.5035945761622,460.4990872599468
80.99,306.54855267419447,306.5386593163939,316.07196816906355,568.0998246824503,340.88115025931614,355.09720241028384,459.27991076231154
81.0,306.4878930890556,306.5618831898636,316.07196816906355,565.7444328315124,340.6219451047764,355.9052337491383,460.5344508388759
81.01,306.39243766066414,306.6003395959982,316.07196816906355,566.9422136875318,340.2226834530451,354.30800677853256,460.1351440962245
81.02,306.316682865208,306.64904188894553,316.07196816906355,568.0780355200766,340.1546187090636,355.33844088272707,460.0554745890636
81.03,306.22879656264166,306.7153808804373,316.07196816906355,566.9131259448538,342.2514161824711,355.5265233090636,459.242911612733
81.04,306.152832709283,306.74634604506355,316.07196816906355,562.9085275403023,341.22612449276204,355.491932424539,459.4738939504272
81.05,306.07784855864423,306.7591744118491,316.07196816906355,566.2488567569933,341.6436643638563,355.0743208178899,458.6386748363035
81.06,306.0226347269083,306.8053885058385,316.07196816906355,567.6584583592258,342.716254379226,355.0141264890636,458.0522284774643
81.07,305.98234189057075,306.8408463657825,316.07196816906355,566.463460842733,344.70884468655646,355.0141264890636,458.0058873090636
81.08,305.9542707431839,306.8488254090636,316.07196816906355,566.4598556187074,346.9202714773598,355.5494479427904,458.0058873090636
81.09,305.93361500257606,306.8488254090636,316.07196816906355,564.3810678687292,348.1675457670166,355.9652231192366,458.0058873090636
81.1,305.9265111330636,306.8488254090636,316.07196816906355,564.0720290490635,348.0204755821528,356.92971790145896,456.9810936690636
81.11,305.9265111330636,306.8616332799763,316.07196816906355,564.0720290490635,349.6145215933001,355.3354259398382,456.9810936690636
81.12,305.9265111330636,306.8693212818636,316.07196816906355,564.5509376624956,351.3268841293598,355.0141264890636,454.6693928701735
81.13,305.9265111330636,306.8693212818636,316.07196816906355,561.9945653324683,351.8589918302316,354.5956663532805,454.4191095690636
81.14,305.9265111330636,306.8565011134272,316.07196816906355,564.8084601058786,352.86841766480615,355.4906862754728,454.3832725354728
81.15,305.9265111330636,306.8488254090636,316.07196816906355,562.247328634187,352.0147071742423,355.06381258390536,453.9563988439053
81.16,305.9265111330636,306.8488254090636,316.07196816906355,561.4634229872054,354.4551077072054,354.502135487345,452.8827307456264
81.17,305.8999259364547,306.8488254090636,316.07196816906355,559.7932409573681,352.78492567736805,354.50172966906354,450.8922863561781
81.18,305.88551938746355,306.8488254090636,316.07196816906355,558.7077180462617,353.81765941849073,355.5265233090636,451.8797672597457
81.19,305.88551938746355,306.8488254090636,316.07196816906355,555.8687670683535,351.7898367058171,355.5265233090636,452.285396979156
81.2,305.88551938746355,306.8360298356745,316.07196816906355,558.9940166950557,352.6888041331106,354.02361629549614,453.9409961954961
81.21,305.8452982866809,306.8283295362636,316.07196816906355,559.4017369934916,350.2424864416701,354.4312628087899,454.3486427087899
81.22,305.82403176906354,306.8283295362636,316.07196816906355,560.3927390880061,348.49173718544324,354.0511852939994,453.51802286852256
81.23,305.7972682583613,306.8283295362636,316.07196816906355,560.9042422879521,348.77195880795216,355.207025445508,454.2061123597514
81.24,305.7830400234636,306.8283295362636,316.07196816906355,559.554953890608,346.7685282334977,354.46641937940376,455.99161031872336
81.25,305.7830400234636,306.8283295362636,316.07196816906355,560.3887977316667,346.35160733776195,354.0494902853188,456.4085394128082
81.26,305.7561678846355,306.84118864685826,316.07196816906355,560.9976481290636,343.67615603635386,353.98933284906354,456.4686968490636
81.27,305.7420482778636,306.8488254090636,316.07196816906355,560.9976481290636,341.3400549008954,353.2112849225282,457.2467447755989
81.28,305.68919147149967,306.8488254090636,316.07196816906355,562.5348385890635,341.03901152120903,352.5212483233833,457.6086649966759
81.29,305.66006478666355,306.8488254090636,316.07196816906355,562.5348385890635,339.37564231949034,353.7687747122755,459.687877011221
81.3,305.63323978834296,306.8359908935162,316.07196816906355,561.1358640968776,336.6599842644105,351.5302810718524,458.0058873090636
81.31,305.6190730410636,306.8283295362636,316.07196816906355,562.3603469759807,337.4763082333999,352.7547680501301,458.0058873090636
81.32,305.6190730410636,306.8283295362636,316.07196816906355,563.0151901119408,335.1908790442648,350.17927716995496,460.7911493481722
81.33,305.6190730410636,306.8283295362636,316.07196816906355,565.15373152948,334.6093516948977,349.4818067177455,462.7136765639231
81.34,305.5922418939811,306.78982189044694,316.07196816906355,564.8722289149212,334.9347154772486,348.8653646490636,462.7244758393015
81.35,305.5780812954636,306.7668419178636,316.07196816906355,567.4322126177359,334.0813882595061,348.8653646490636,464.0044410460742
81.36,305.5780812954636,306.7668419178636,316.07196816906355,568.1831813971279,334.0417881836692,348.3533654489959,465.17864754919896
81.37,305.5780812954636,306.7668419178636,316.07196816906355,568.6000981936891,335.2925385733529,348.7505672655107,465.974641661958
81.38,305.5780812954636,306.7668419178636,316.07196816906355,568.8591742242302,331.6194465642302,348.32997555895656,466.71663324906353
81.39,305.5780812954636,306.7668419178636,316.07196816906355,570.935309808268,333.69558214826804,347.9146943330448,466.71663324906353
81.4,305.5780812954636,306.7668419178636,316.07196816906355,572.2242563065016,335.1690140471618,348.3871815895286,467.33166930087134
81.41,305.5780812954636,306.7540094519035,316.07196816906355,571.8162859584178,336.3929271410011,348.79527286326214,468.55594722124647
81.42,305.5780812954636,306.74634604506355,316.07196816906355,572.7183913038369,336.5678409690636,347.9376517601681,467.37465119572033
81.43,305.5780812954636,306.74634604506355,316.07196816906355,573.6237186004603,337.4087845804603,345.8030660460792,468.8590340394511
81.44,305.5780812954636,306.74634604506355,316.07196816906355,575.1212044556722,339.22610648112885,346.30338054906355,468.87373367942325
81.45,305.5780812954636,306.74634604506355,316.07196816906355,577.6816144726411,340.07957512039366,346.30338054906355,470.153698886196
81.46,305.5780812954636,306.74634604506355,316.07196816906355,577.9602825079917,342.748725990503,347.324224634375,468.7721458858901
81.47,305.5780812954636,306.74634604506355,316.07196816906355,580.0520359471031,344.00377846388733,347.3281741890636,469.5614767904018
