Time[s],Signal A,Signal B,Signal C,Sensor A,Sensor B,Sensor C,Sensor D
43.6,319.3417608395133,322.7053938635779,316.07196816906355,713.150725414065,409.3569676640621,316.07196816906355,519.9800305888281
43.61,320.1057547460697,322.7258405462832,316.07196816906355,711.6089418289706,408.54290848901707,316.07196816906355,520.3421967603787
43.62,320.355923270292,322.77255883874346,316.07196816906355,713.4948757134243,407.1209171316768,316.07196816906355,519.8256597740731
43.63,320.4792838295006,322.7946144474636,316.07196816906355,714.5972175377506,405.9803648516896,316.07196816906355,520.2506498949302
43.64,320.6166266731334,322.7946144474636,316.07196816906355,712.1901637898329,403.7201865778442,316.07196816906355,520.0322704694207
43.65,320.7455539113945,322.7946144474636,316.07196816906355,714.8982199256914,402.9079638330021,316.07196816906355,520.6911225981004
43.66,320.86895341276147,322.8343497960609,316.07196816906355,714.8027317039033,400.789516569156,316.07196816906355,521.9013342009729
43.67,320.97653624908867,322.8561020658636,316.07196816906355,716.3282456651693,399.9728236744562,316.07196816906355,522.3678489601228
43.68,321.0936148232841,322.8953906044339,316.07196816906355,718.2109022595623,397.2620907776102,316.07196816906355,523.0040060088511
43.69,321.1759098517507,322.9308341172669,316.07196816906355,717.0767672373488,397.8484695000691,316.07196816906355,524.6663217227078
43.7,321.2374610073564,322.96461951399044,316.07196816906355,714.7447939706724,395.52860109586817,316.07196816906355,525.615903707881
43.71,321.25742398746354,323.0055374744484,316.07196816906355,720.6123462870945,395.8865184729873,316.07196816906355,526.9889632184985
43.72,321.25742398746354,323.03324994406125,316.07196816906355,721.225541809525,394.0440317396949,316.07196816906355,529.7595338159841
43.73,321.25742398746354,323.0537765606704,316.07196816906355,719.6892716142137,393.05182653744697,316.07196816906355,531.8993049858914
43.74,321.25742398746354,323.0876541888216,316.07196816906355,718.825483302994,393.43427337513305,316.07196816906355,533.7544889123834
43.75,321.2988154025832,323.1152785261814,316.07196816906355,720.8944207365046,392.4046119653431,316.07196816906355,535.5220693793536
43.76,321.31891160586355,323.1358051427906,316.07196816906355,720.9353858374699,391.4292666680604,316.97502247339344,539.1117616324659
43.77,321.31891160586355,323.1689387707591,316.07196816906355,718.9141197545049,390.4186336265778,317.09676180906354,541.0546945391765
43.78,321.31891160586355,323.1709699117536,316.07196816906355,715.9113883066392,387.5075023334299,317.53642492525825,544.676948585406
43.79,321.3464949514778,323.1899777841884,316.07196816906355,718.6698724879345,386.87678488934273,316.392021470772,547.9533347781354
43.8,321.4152278609126,323.20453190346353,316.07196816906355,719.833419087616,385.7724201223713,318.01838127497564,550.1599347908945
43.81,321.46942919653225,323.21773329513405,316.07196816906355,719.8406623290635,384.973056488124,317.44905101951184,552.5910793877011
43.82,321.5239912595131,323.23815948196653,316.07196816906355,719.4480679847541,385.5183307376825,317.7860523584385,555.5473220968819
43.83,321.54436620666354,323.2455236490636,316.07196816906355,719.7301608804497,384.1503542035192,318.50871018873187,557.1603841788129
43.84,321.6416478173215,323.2588480159709,316.07196816906355,717.3144086841157,383.7083484090636,321.0666996431232,561.7898156623709
43.85,321.75657227528563,323.2923833630462,316.07196816906355,716.4951599540778,383.7083484090636,320.51073679589945,562.7076413422277
43.86,321.8317121945577,323.32022700624503,316.07196816906355,717.1895703724782,382.3048197339415,322.7736943100966,565.2160287348556
43.87,321.8652967317278,323.32750714026355,316.07196816906355,715.6703793879713,382.4928181271995,322.6223179423576,568.7252500921803
43.88,321.8859545219229,323.35363117973446,316.07196816906355,716.4726493369817,380.488610759166,325.503820401786,571.9643460939376
43.89,322.00299005478547,323.38170232712133,316.07196816906355,716.350942794708,379.2908934403524,324.3079169677152,573.4775707298726
43.9,322.07058954245446,323.40224329084145,316.07196816906355,715.7486654237182,378.5915578637181,327.1644370077876,576.7274414119607
43.91,322.15996589497337,323.4227043206577,316.07196816906355,714.563139050046,377.406031490046,327.6810272833624,576.5456204747647
43.92,322.21397661897595,323.4431489537757,316.07196816906355,713.4161572147614,373.894627322268,330.972602967424,579.8312277606669
43.93,322.33068626746103,323.4768175240243,316.07196816906355,711.2168209393229,371.37786941518846,331.71240149614005,581.8716533855253
43.94,322.4123500230453,323.4914741226636,316.07196816906355,709.6125269917757,367.8834481276125,334.8269563764153,584.9057025270295
43.95,322.5356531938101,323.53100246294565,316.07196816906355,707.5186050893219,365.4042386595026,335.70167718618643,585.415812007625
43.96,322.6448941462468,323.5661877277814,316.07196816906355,707.8812959552162,361.96568297241765,338.6308161531765,586.88038149112
43.97,322.72567657930074,323.5864048567113,316.07196816906355,708.3775440770371,359.4212207940744,340.0658264889194,587.7538868956341
43.98,322.83571687077665,323.6201410633401,316.07196816906355,708.5679322890635,355.2948318141705,341.5376433130365,589.460621265023
43.99,322.8904060081689,323.6614238503339,316.07196816906355,706.5234197871688,353.3785168974652,343.67444053180054,592.0710289141002
44.0,322.9939573063164,323.7024688852032,316.07196816906355,705.5037337186706,348.4446110251142,345.21980474587315,594.69827597227
44.01,323.0818497576446,323.74332740763,316.07196816906355,702.3579554257718,346.0012693344043,346.28512077598606,595.4868608270119
44.02,323.115766327954,323.75792046906355,316.07196816906355,700.608560946737,342.1353275589319,347.85003395353533,597.5643921799874
44.03,323.1363072916742,323.7843007069444,316.07196816906355,696.8372793597913,338.43206562504764,350.24302753271206,600.292675692712
44.04,323.19846922428934,323.7856288395019,316.07196816906355,693.7366493754964,336.0766122864913,352.85958394362933,604.3677061145537
44.05,323.26634540624104,323.7916238822959,316.07196816906355,695.0946157253842,333.62960798331216,352.6280379694332,604.5513778290635
44.06,323.3141622774835,323.7989122146636,316.07196816906355,692.1140710598244,331.10218812320204,353.74348280524026,606.7036125392204
44.07,323.36806027418567,323.8248415433428,316.07196816906355,692.0399743804778,330.1692036958224,353.98933284906354,607.1133619290636
44.08,323.443751532436,323.83990396026354,316.07196816906355,687.3611130004882,327.98263429955085,354.8704258256882,611.0782823734617
44.09,323.4985738930015,323.83990396026354,316.07196816906355,687.4552341475603,327.44912673056683,354.61838397869207,613.3079054001369
44.1,323.5534659395345,323.87967825101924,316.07196816906355,685.5412926529252,324.8217362012875,354.50172966906354,616.6873981305741
44.11,323.62865094972665,323.90139157866355,316.07196816906355,682.3667545513134,325.175630238576,355.17504778476547,617.5222196247655
44.12,323.66919588529964,323.94095066275486,316.07196816906355,680.2325808042679,322.5457002706567,356.5622432988533,619.2546558186455
44.13,323.6897266010834,323.9628791970636,316.07196816906355,681.0461029874454,321.7083331890636,357.4403889689693,622.5600047292288
44.14,323.71028191191454,324.00270882667576,316.07196816906355,677.889961981259,323.2173069809798,356.1242403483554,624.9619304097718
44.15,323.7583693286779,324.03761124846693,316.07196816906355,676.7831868996462,322.2045874596463,358.73421143534205,626.0579841003229
44.16,323.81999426942565,324.0847148633359,316.07196816906355,674.9183166236689,319.88350979895023,360.1380946890636,629.1730226831961
44.17,323.8803525652343,324.1192811528131,316.07196816906355,674.4280860901023,319.98040198802494,361.697006675057,630.9059507780233
44.18,323.9287002795823,324.1529784172835,316.07196816906355,671.9092355544097,320.17114272906355,363.571493614552,633.0155315272963
44.19,323.98379113608144,324.1810700605433,316.07196816906355,670.4511407171323,319.7630699016156,364.9120179766869,635.2241749785734
44.2,324.0315588172291,324.2281306340793,316.07196816906355,667.1192312049876,317.6461188364838,366.7143922373224,637.2599131973225
44.21,324.0862520537959,324.2762754392865,316.07196816906355,668.2417778607199,317.6091586290636,366.4629345227011,638.3537287385637
44.22,324.1474998704841,324.3302410723689,316.07196816906355,666.2444263621379,317.21640031777173,368.35780255810846,638.8819647690635
44.23,324.19534748553576,324.3654796264739,316.07196816906355,663.9624896697279,317.48779026869107,370.4914495612231,642.2725990559549
44.24,324.2642587090639,324.399371601736,316.07196816906355,661.9633468318634,316.09549333186345,373.80957559890976,643.9787267475087
44.25,324.318339119034,324.45338847450046,316.07196816906355,664.6827843258876,316.07196816906355,373.9728088290636,645.0347233042595
44.26,324.33180490746355,324.47527601706355,316.07196816906355,660.8493162112794,316.07196816906355,374.4067412992233,645.5431234290636
44.27,324.39915024630983,324.51402551417925,316.07196816906355,660.4026312090635,316.07196816906355,377.024757016284,647.765230619183
44.28,324.4479365723356,324.54982770478625,316.07196816906355,660.4026312090635,316.55257589035074,379.0244634906506,646.9294827115411
44.29,324.4962781379217,324.57052033796515,316.07196816906355,659.9845072055945,317.0024889925327,381.9352033126282,648.5953647072649
44.3,324.5301393693746,324.5777553810636,316.07196816906355,660.3934736530965,316.09028533058495,381.7140221013069,648.160368501307
44.31,324.57813250512305,324.5777553810636,316.07196816906355,659.6180799420887,317.2487960943194,382.6669469633337,649.1132933633337
44.32,324.61201628203605,324.604139718119,316.07196816906355,657.7560483444942,316.3928167106366,384.27286418400666,649.2833271240826
44.33,324.64635711691244,324.63197926214326,316.07196816906355,659.3542857616291,316.4771756734941,387.4706200103263,651.0852422771674
44.34,324.70135779157124,324.6259432276036,316.07196816906355,656.3720009964686,316.0817610970874,384.92906004757145,651.2074776129591
44.35,324.7349874196615,324.6451437612427,316.07196816906355,658.2605583526408,316.4633880998616,388.1586480139367,652.2071412633192
44.36,324.755538631318,324.62002811871355,316.07196816906355,657.9304620732604,316.1168766759556,386.3876549841453,652.7166789090636
44.37,324.7756737767568,324.6627497159779,316.07196816906355,657.4610922390295,316.07196816906355,388.9315555755739,654.3034878275251
44.38,324.8236402678706,324.7137844392499,316.07196816906355,659.2527758524126,316.07196816906355,389.1196093076885,655.2786630090635
44.39,324.8718547590453,324.7079677105492,316.07196816906355,657.7053436047744,316.07196816906355,391.2659739998755,657.306711176338
44.4,324.92676730145104,324.740590991285,316.07196816906355,657.3282502890636,316.07196816906355,390.9381814565978,660.7461932768736
44.41,324.96046456592154,324.7093573307251,316.07196816906355,660.1371215240505,316.07196816906355,388.93417494811774,660.1359368626026
44.42,324.99466807845016,324.706582189548,316.07196816906355,660.9150280290636,316.07196816906355,390.6701200354212,661.4570352364977
44.43,325.0357356587796,324.70801485105665,316.07196816906355,659.2965919292844,316.07196816906355,387.88076087133976,663.1110009317757
44.44,325.090777325184,324.7007306178636,316.07196816906355,661.3814853997695,316.07196816906355,388.2372599340612,667.355757676274
44.45,325.1244049036869,324.7007306178636,316.07196816906355,661.8188796228453,316.8548777166271,386.9499469568897,667.9186788723134
44.46,325.15880107741987,324.68748003609835,316.07196816906355,664.2807782767883,316.16037916597367,386.70490650004194,669.3923054819987
44.47,325.18560557986774,324.6802347450636,316.07196816906355,665.6412881644906,316.07196816906355,385.5127825049155,670.2607463563439
44.48,325.2472694627738,324.6802347450636,316.07196816906355,668.925499681455,316.07196816906355,386.49578301068897,673.2945290515016
44.49,325.32994571447443,324.66696981618736,316.07196816906355,668.2770594561578,316.07196816906355,383.1329862182347,674.536003009156
44.5,325.3979653675358,324.6861826473501,316.07196816906355,673.1181989586288,316.07196816906355,385.0780998858112,676.6877027770329
44.51,325.445612123034,324.67433808245903,316.07196816906355,676.0234889280288,316.07196816906355,381.3472566559,677.189156850545
44.52,325.5141339249789,324.6729320655849,316.07196816906355,674.7584078240834,316.07196816906355,383.2585193399601,680.4486749399601
44.53,325.568573012723,324.66704770050404,316.07196816906355,679.3600694495846,316.07196816906355,381.55936844350725,681.7910972199162
44.54,325.65125336359824,324.6464739433874,316.07196816906355,681.4006672397745,316.07196816906355,379.6679293676193,685.3044279997375
44.55,325.7395782778425,324.6656293861063,316.07196816906355,683.760236149589,316.07196816906355,380.6364126466886,685.5100753890636
44.56,325.79421207637824,324.6669616178383,316.07196816906355,685.887619613976,316.07196816906355,381.1463643090636,688.9785652983728
44.57,325.8478825688923,324.68555547364247,316.07196816906355,688.677737125351,316.07196816906355,381.7805127622574,690.2433984022573
44.58,325.9236168684756,324.67459223128174,316.07196816906355,691.530756470349,316.07196816906355,381.2928770061871,692.8297459462547
44.59,325.96480947362903,324.6729997019652,316.07196816906355,692.8825556121112,316.07196816906355,381.5419428524527,692.4048685526981
44.6,326.02694886078405,324.66693702279093,316.07196816906355,698.7158880193066,316.07196816906355,380.6931513713608,694.5852563937331
44.61,326.0668809697603,324.67261028038195,316.07196816906355,698.8323927090636,316.07196816906355,382.9715791703474,695.5124220428248
44.62,326.1281882244797,324.66726085758114,316.07196816906355,700.8749048137729,316.07196816906355,384.885934681613,697.3281268191296
44.63,326.1559375866635,324.68619904404835,316.07196816906355,705.4438406791743,316.07196816906355,385.636302931932,697.8075990690636
44.64,326.1836848992602,324.6874328955909,316.07196816906355,708.0268781397145,316.07196816906355,384.3045221091336,698.2920702623736
44.65,326.19692933226355,324.71981637461494,316.07196816906355,708.0555354690636,316.07196816906355,386.9060550452885,698.9913238555166
44.66,326.2107537984671,324.7284738312856,316.07196816906355,710.3280686550329,317.43548890048004,387.89045746876144,700.6331764899697
44.67,326.2442911951298,324.74699185236045,316.07196816906355,712.1333000403366,316.4723243004024,388.7578878965776,700.5651916798922
44.68,326.2720446564883,324.7622182362636,316.07196816906355,716.9833204044919,316.07196816906355,389.3447134290636,702.1231014177057
44.69,326.3065453591725,324.7622182362636,316.07196816906355,713.9384350950382,316.9070294649667,389.3447134290636,702.8241852922898
44.7,326.3337556799018,324.7754954626634,316.07196816906355,719.2000043866684,316.093345364394,393.2117558329053,702.9315672690635
44.71,326.34040044186355,324.76950656863124,316.07196816906355,717.7243958260833,316.47293507741176,390.7200889733076,703.3206814141715
44.72,326.34040044186355,324.7753519915538,316.07196816906355,718.9138758536186,316.17556660771845,392.60548381630673,704.2292142653008
44.73,326.34040044186355,324.7827141090636,316.07196816906355,719.7331594266402,316.4768620866403,392.27226191632434,704.0782150216213
44.74,326.34040044186355,324.7827141090636,316.07196816906355,718.3366116457938,316.58436498906354,395.76991745262814,705.4050686365986
44.75,326.354142924576,324.7827141090636,316.07196816906355,719.6843239105197,317.96521703051974,394.3301848677921,704.8232768904724
44.76,326.3608963146636,324.7827141090636,316.07196816906355,718.5345525869471,317.7246979632117,394.3032061504255,706.1873940517874
44.77,326.40133467169795,324.7827141090636,316.07196816906355,718.3034718690635,318.3690369643617,394.1511800635188,706.8358465746082
44.78,326.4223839330636,324.7827141090636,316.07196816906355,720.2255092334545,317.19242424577027,396.1537129187445,707.0307418290636
44.79,326.43620430009264,324.7827141090636,316.07196816906355,717.0126213042467,319.6020891678825,395.708231024262,707.4357607714643
44.8,326.45673911505094,324.7827141090636,316.07196816906355,718.2638574461157,319.6686495148005,395.49347526906354,708.0272716604724
44.81,326.47676973153835,324.76986934557976,316.07196816906355,715.8968444353002,320.05985013975953,393.1575299022384,709.2235071276825
44.82,326.4838715514636,324.7751367848894,316.07196816906355,713.1879746132919,319.76292028174413,395.1631883780661,709.5927259290636
44.83,326.5251235946481,324.7827141090636,316.07196816906355,712.2624588819605,321.2773398270633,393.6643805390586,710.7634727288596
44.84,326.5453591698636,324.76943893225103,316.07196816906355,714.6622837355415,321.2068176279331,393.41466497362535,712.0962660477744
44.85,326.5866276097464,324.7754073304104,316.07196816906355,713.6797956265879,322.23283487153924,393.108315212471,712.1547100290635
44.86,326.6068467882635,324.7562006480095,316.07196816906355,709.5371903121246,322.2778376594462,392.9314911690636,712.1547100290635
44.87,326.6203228246296,324.76756560947706,316.07196816906355,707.5608880749082,321.84086975052475,393.88415163433126,712.7898176891044
44.88,326.6409293751427,324.7567109952422,316.07196816906355,709.2513056799611,321.7083331890636,392.4949290784236,713.1795036690636
44.89,326.64783853386353,324.76811079969355,316.07196816906355,707.1194151731455,323.35720770953805,393.90189286182687,714.376620458804
44.9,326.64783853386353,324.75621294553315,316.07196816906355,704.5085484165174,322.7530221727905,391.5650948666932,713.7488318749402
44.91,326.64783853386353,324.7548889121503,316.07196816906355,704.8688576619923,323.9334245782627,393.3359280286769,714.0802255430689
44.92,326.64783853386353,324.7622182362636,316.07196816906355,704.1648182825505,324.67848644711376,392.7803546030364,713.4203445215745
44.93,326.70296013417186,324.7754237271086,316.07196816906355,702.3361396187634,324.7827141090636,393.9824457411055,714.352017213095
44.94,326.7298220250635,324.7694491801874,316.07196816906355,700.9025680932912,323.27640683019865,393.0173955207302,712.2978839485079
44.95,326.7298220250635,324.78859027579534,316.07196816906355,701.6652994540831,324.42050284659285,395.6713507507456,713.5246398199047
44.96,326.7298220250635,324.78995325133656,316.07196816906355,700.4487279818808,325.26872864159543,393.3909471496212,712.3844380193423
44.97,326.7298220250635,324.7956388064512,316.07196816906355,699.220500506817,325.2951109290636,396.1441741395434,712.1547100290635
44.98,326.7298220250635,324.8032099818635,316.07196816906355,698.8323927090636,324.81413633165323,395.4133466543519,711.7143582515429
44.99,326.7298220250635,324.8032099818635,316.07196816906355,693.8191370651673,325.20048558352056,399.033020270196,711.2371180021566
45.0,326.7298220250635,324.8032099818635,316.07196816906355,694.1919631401611,323.2840026006583,398.6521864576992,709.1927694672443
45.01,326.75729674255194,324.8032099818635,316.07196816906355,692.6545882173059,325.2033160635541,398.9101434135854,709.0803291090635
45.02,326.77081377066355,324.8163683322012,316.07196816906355,692.9814932892914,325.40237812894964,400.1738082527203,708.351292963155
45.03,326.77081377066355,324.8237058546636,316.07196816906355,692.7917302013852,325.6994084167418,400.6174434690636,709.2254029959165
45.04,326.77081377066355,324.8237058546636,316.07196816906355,689.6655623595815,324.80148422937384,402.5553118456053,707.6548575525218
45.05,326.77081377066355,324.8237058546636,316.07196816906355,690.3008196394939,325.4742837994939,401.9955921048974,706.8717000048974
45.06,326.77081377066355,324.85018037355934,316.07196816906355,689.1992546087469,326.28577074250245,402.0942817820167,704.7101642676638
45.07,326.77081377066355,324.8646976002635,316.07196816906355,686.8008624166746,325.93724047512575,403.1176099671115,705.1107417544288
