Time[s],Signal A,Signal B,Signal C,Sensor A,Sensor B,Sensor C,Sensor D
35.0,327.6726321738636,323.13628269662684,316.07196816906355,661.977105711274,321.1710789745317,316.07196816906355,499.0020682159375
35.01,327.6726321738636,323.1430442850635,316.07196816906355,663.3876050327353,320.1599663296258,316.07196816906355,497.9817836679535
35.02,327.6726321738636,323.1430442850635,316.07196816906355,659.5764302789719,319.60909670679285,316.07196816906355,495.92325198906354
35.03,327.6726321738636,323.1430442850635,316.07196816906355,660.4201920728785,319.34779482446567,316.07196816906355,495.92325198906354
35.04,327.6726321738636,323.1567334785067,316.07196816906355,656.2052486249551,320.26935075317203,316.07196816906355,495.9878795751765
35.05,327.6726321738636,323.1635401578636,316.07196816906355,655.0698818007864,320.917561424694,316.07196816906355,496.71127730647794
35.06,327.6726321738636,323.1635401578636,316.07196816906355,653.995229900613,319.48469290765865,316.07196816906355,495.2786075994088
35.07,327.6726321738636,323.1907381810692,316.07196816906355,654.8171369453531,319.9865323035794,316.07196816906355,495.3304027195617
35.08,327.6726321738636,323.20453190346353,316.07196816906355,652.7766375353527,319.17033335941414,316.07196816906355,494.922368834272
35.09,327.6726321738636,323.2181944522721,316.07196816906355,648.4000349403065,319.65874590906355,316.07196816906355,493.3612678890636
35.1,327.6583096579509,323.2250277762636,316.07196816906355,650.1429137813781,319.65874590906355,316.07196816906355,493.3612678890636
35.11,327.6378281322619,323.2250277762636,316.07196816906355,652.1906154410806,319.65874590906355,316.07196816906355,493.3612678890636
35.12,327.58872821938223,323.2387579614523,316.07196816906355,648.2361458422231,319.59322675248376,316.07196816906355,492.86427576706006
35.13,327.55584054188733,323.2455236490636,316.07196816906355,650.3323509849067,318.5451252059356,316.07196816906355,493.2096804138348
35.14,327.4926353693467,323.2728856392516,316.07196816906355,651.4104051999648,318.1545435563352,316.07196816906355,492.3208584435772
35.15,327.45337757458555,323.3002373815032,316.07196816906355,654.1532838237102,318.70206210396526,316.07196816906355,491.8819188316924
35.16,327.4050585544596,323.3339694889574,316.07196816906355,650.9898401380451,319.05355607454885,316.07196816906355,492.2334189510379
35.17,327.3288712960874,323.3480030130636,316.07196816906355,651.3450869029383,317.6091586290636,316.07196816906355,492.17713113556727
35.18,327.2755164400145,323.36153438828615,316.07196816906355,652.1802855211893,317.6091586290636,316.07196816906355,494.26546996227023
35.19,327.22004436028124,323.3684988858636,316.07196816906355,652.5684609553231,317.5350496521933,316.07196816906355,494.5089957741179
35.2,327.15827594842386,323.3684988858636,316.07196816906355,651.6970215347873,317.09932994192536,316.07196816906355,495.3804351946538
35.21,327.06816994283326,323.3684988858636,316.07196816906355,655.1493217541719,316.6028420183928,316.07196816906355,494.9314444067479
35.22,326.99429871808746,323.4097386315244,316.07196816906355,651.6586471121439,317.1309878670523,316.07196816906355,496.48614449088086
35.23,326.9471172189019,323.4574940151484,316.07196816906355,657.8206984760674,317.6091586290636,316.07196816906355,498.04845469258464
35.24,326.8919218334515,323.4709782498636,316.07196816906355,655.3460431908935,317.6091586290636,316.07196816906355,498.5181627087168
35.25,326.8017379435442,323.4709782498636,316.07196816906355,656.1673292106877,317.6091586290636,316.07196816906355,499.56782194159774
35.26,326.742715978642,323.4709782498636,316.07196816906355,655.4640686744124,317.6091586290636,316.07196816906355,499.9195126725602
35.27,326.6587074952094,323.5118716152741,316.07196816906355,658.0883786740098,318.46879857562845,316.2831166506492,502.212779483454
35.28,326.5988718441571,323.5461304666593,316.07196816906355,659.3417894279829,317.6331900399216,317.5367323633502,503.04852329192136
35.29,326.51492689793014,323.5666632320304,316.07196816906355,656.8895586772396,317.244174275003,317.0116281022142,505.1833365101983
35.3,326.4552367675747,323.61468096282624,316.07196816906355,657.3258584207077,318.1167717123521,320.0657877941097,509.1101141353156
35.31,326.4285634387128,323.63494523226353,316.07196816906355,659.8707284669199,317.6130589936574,319.1840184536827,511.71338102230936
35.32,326.3651041173494,323.6624424952121,316.07196816906355,660.8150840045289,318.0882414574144,323.2770155576208,512.3829319965907
35.33,326.2974328941256,323.6896897085124,316.07196816906355,659.2004334924559,317.6091586290636,324.4971205182938,514.974344070757
35.34,326.2217682805099,323.69643285066354,316.07196816906355,658.522059044934,317.6091586290636,325.8406147323974,518.5514805521918
35.35,326.1683006971365,323.7239178160884,316.07196816906355,660.6407645567775,317.81485520848435,327.0657493802556,521.4392322032368
35.36,326.08556295781744,323.7509416243752,316.07196816906355,659.2340426246733,318.86989870714984,328.47269061819884,523.9013788572408
35.37,325.9966026715164,323.7715563732374,316.07196816906355,657.1886139572645,319.33273035795764,329.36794009416644,525.1729612520382
35.38,325.90039709418045,323.7920665931484,316.07196816906355,653.8389775647349,317.65791216169293,332.2982719209535,528.5219130824162
35.39,325.81192460965195,323.812603457694,316.07196816906355,658.5623600796208,317.17253300121786,332.01915912516307,532.6807634256606
35.4,325.7440504772875,323.84690535041204,316.07196816906355,656.7811252621913,317.64388683593586,332.46611877207454,535.3625254063039
35.41,325.7255242578636,323.8603998330636,316.07196816906355,655.2900259209439,319.1349861771833,331.9744883703955,536.3661632063996
35.42,325.6968976723238,323.8878827489011,316.07196816906355,655.2786630090635,318.4847402654923,335.57545335354763,542.1361838625158
35.43,325.6845325122636,323.90139157866355,316.07196816906355,654.7830113171411,317.394152824217,336.4016317381792,544.3550793493675
35.44,325.6845325122636,323.9288355523428,316.07196816906355,652.7166789090636,318.5987731529896,338.1224160283725,548.257270125474
35.45,325.6272793411841,323.95612580697593,316.07196816906355,652.3334286331635,318.04490498396615,338.8842332732376,550.8376246762646
35.46,325.6025490210636,323.9628791970636,316.07196816906355,650.6072231846147,317.69966430417384,340.2651734469468,553.9447436538879
35.47,325.5741048487917,324.0038012566961,316.07196816906355,650.6877063779257,317.26068984930527,340.806756389814,558.202746880977
35.48,325.56155727546354,324.0517021610169,316.07196816906355,648.1825716803111,318.0957347485101,341.6419201650811,559.8730764810987
35.49,325.56155727546354,324.07906415120493,316.07196816906355,650.4572056932425,317.9703000069741,345.07996140575875,562.9113641690979
35.5,325.5329060948764,324.1133701430976,316.07196816906355,652.1812693230838,317.0852554260736,347.3154954421494,565.5940033730968
35.51,325.5205655298636,324.15438853333217,316.07196816906355,651.1868792607952,316.5880603949294,346.8338957206187,570.5520103422734
35.52,325.4632795653876,324.19534543594847,316.07196816906355,651.1122168953593,317.1976691396198,351.4273487490636,572.3369036729978
35.53,325.3956349867984,324.20882967066353,316.07196816906355,650.1546948090636,318.45850554830827,351.8010417994768,574.9178751495597
35.54,325.3485580165641,324.2636356345307,316.07196816906355,650.2893076024394,317.5755064555132,354.0386151752112,578.5177067109461
35.55,325.29319661454406,324.2908131618635,316.07196816906355,651.8634726169705,317.0286007344799,355.6426119326028,581.9578733736331
35.56,325.218364133364,324.30431584286424,316.07196816906355,650.1050702018401,316.6769202514538,356.3460569317334,584.771655419743
35.57,325.1784361235623,324.3385275537419,316.07196816906355,649.455254703478,316.2346459610645,358.7106842229549,587.1705354135878
35.58,325.14373661091184,324.3795582415003,316.07196816906355,651.1314092306493,317.07272219985646,362.48388012442007,590.524488236929
35.59,325.0883772584791,324.3932925258636,316.07196816906355,649.5730567819834,317.09676180906354,363.6417637144468,593.7079358944468
35.6,325.0553440602873,324.407035008576,316.07196816906355,652.1868749442946,317.09676180906354,366.6916725623236,596.7578447423235
35.61,325.0348420387255,324.42753498055055,316.07196816906355,651.1866538061945,317.09676180906354,368.2814287872938,598.8416601298995
35.62,324.9857257291476,324.44802880376324,316.07196816906355,649.032760979928,316.07196816906355,367.49221265966975,601.7478416697664
35.63,324.9671769642636,324.4685267261505,316.07196816906355,653.2290757290635,316.22766916596333,370.2568947928999,606.2822727333091
35.64,324.9671769642636,324.47527601706355,316.07196816906355,653.0930528196391,317.09676180906354,369.5133762632707,607.7271846252016
35.65,324.9242422099221,324.48901645018867,316.07196816906355,651.7353160235267,317.09676180906354,373.8547526017355,611.1723625287883
35.66,324.89162097877363,324.4822630601011,316.07196816906355,654.6063000010341,317.09676180906354,373.1366059130455,614.0449533827231
35.67,324.8851934730636,324.48890167330103,316.07196816906355,655.5538242005781,317.1884828894308,374.9976024690636,617.5212665666802
35.68,324.8851934730636,324.523078541195,316.07196816906355,656.779454848558,317.597025072366,374.9976024690636,618.3386153293096
35.69,324.85669806110974,324.5230887891313,316.07196816906355,655.1128575468734,317.3604494109847,376.74689856790894,623.7928683707197
35.7,324.84420172746354,324.5162677626636,316.07196816906355,654.2586961471079,316.0792073113365,378.02830053536496,625.5014043273278
35.71,324.7869137134003,324.53002049331235,316.07196816906355,661.3803253333692,316.58100161633706,377.0830103859561,628.0320789320385
35.72,324.7478957203509,324.5367636354636,316.07196816906355,659.4093766181282,316.1350442176056,379.5950665398153,631.2383364463956
35.73,324.7130855299874,324.5230150039893,316.07196816906355,659.6275674816079,316.9216512206221,378.8727489410104,633.2559378673038
35.74,324.672163470355,324.50255397417305,316.07196816906355,658.5540141602166,316.1389589293103,377.5924598994475,636.4679075814103
35.75,324.6167836220493,324.55074591988773,316.07196816906355,661.1513802854313,316.9587385024538,378.407841058288,641.1080911998391
35.76,324.5560686980539,324.5777553810636,316.07196816906355,659.7477655276434,316.2569331731472,377.3548409981407,642.1610912599864
35.77,324.5083830003974,324.5913584918409,316.07196816906355,659.6540420005036,316.1640356296812,380.04133547581336,646.4566962153144
35.78,324.4957718898636,324.5573045991837,316.07196816906355,660.8775000859666,316.5718563578937,379.6335147476008,648.4957957572026
35.79,324.45302159837735,324.5641133281279,316.07196816906355,662.8174959341052,316.219087544022,380.5728815897704,651.362746146943
35.8,324.37754759637863,324.6185975067921,316.07196816906355,661.9457716209374,317.0908118571897,380.13711268940784,652.6700548976181
35.81,324.3380356527948,324.62555380602043,316.07196816906355,663.4889509749695,316.5724261431576,381.6473941180087,655.7683237573666
35.82,324.33180490746355,324.6324937085505,316.07196816906355,664.3385930347825,316.07196816906355,384.0892703538134,658.9640463931044
35.83,324.33180490746355,324.6254964175766,316.07196816906355,667.2765062849184,316.07196816906355,382.2581321852904,660.8375044397849
35.84,324.33180490746355,324.64619314993007,316.07196816906355,665.7576596310744,316.21263544326456,382.8353431038458,663.025330233059
35.85,324.33180490746355,324.6734752062141,316.07196816906355,663.3826450315178,317.53948700865453,385.0676941311907,664.1079714244498
35.86,324.31774678831005,324.6667361632375,316.07196816906355,665.5344944192661,317.18084612722555,383.9914865942719,664.8254437989248
35.87,324.3113090346636,324.67335018139005,316.07196816906355,670.2410518721705,316.23577528365576,389.43719080713714,665.94651885099
35.88,324.2970664526548,324.69390754180847,316.07196816906355,668.1605363201153,317.0679794548906,386.9405741942582,668.443135463869
35.89,324.2908131618635,324.7281213022735,316.07196816906355,669.3709405841921,316.6696134728006,388.1711525459321,667.721637699976
35.9,324.2908131618635,324.72795528570384,316.07196816906355,665.6318436663042,317.07337396861146,390.3560187351739,668.5955858153426
35.91,324.2908131618635,324.7212264906636,316.07196816906355,670.1507347590899,316.0970961091164,389.35018377751385,670.1299662911816
35.92,324.2908131618635,324.73498127089965,316.07196816906355,670.3573229089775,316.9990128925058,391.29863827235687,669.2090395857703
35.93,324.2908131618635,324.7279634840529,316.07196816906355,667.5761866890635,316.07196816906355,390.38626244507753,670.8269509912058
35.94,324.2908131618635,324.76240474870605,316.07196816906355,667.8251992460598,316.07196816906355,392.9644362350023,671.6094711171861
35.95,324.2908131618635,324.7827141090636,316.07196816906355,670.2156123948511,316.14940977485105,393.5786155593271,670.7852951793271
35.96,324.2908131618635,324.7827141090636,316.07196816906355,670.5677683821261,316.5015657621261,394.2829316330517,671.4896112530516
35.97,324.2908131618635,324.7963336165392,316.07196816906355,671.1887502866332,316.2341725064028,395.42424635950704,670.9967080576718
35.98,324.2908131618635,324.8032099818635,316.07196816906355,668.6798566459471,317.0704697034357,395.006116207276,673.0873670171757
35.99,324.2908131618635,324.83061296379714,316.07196816906355,672.2856975972383,316.2377510857936,395.49347526906354,670.4212782304627
36.0,324.2908131618635,324.84420172746354,316.07196816906355,670.1556640164983,317.0897645180897,395.49347526906354,672.1250570949937
36.01,324.2622419151804,324.84420172746354,316.07196816906355,668.6122858525,316.0795045014921,393.023206100669,671.6937050552197
36.02,324.2355091482873,324.87166824660284,316.07196816906355,670.7491916993899,316.9981377187372,397.7675927860003,671.5794057213757
36.03,324.2293255434635,324.8714468911766,316.07196816906355,671.776182496954,316.3744298631477,393.7081535745977,670.3143471628905
36.04,324.2293255434635,324.87840114081763,316.07196816906355,671.8962411710545,317.56057316259114,394.9494041272384,671.1312901072384
36.05,324.2293255434635,324.91258210788624,316.07196816906355,669.035554320042,317.17458463808515,394.33316086852267,670.5828062039996
36.06,324.2293255434635,324.92618521866353,316.07196816906355,668.6835356551146,317.52660330301245,393.629012860955,670.2307342498029
36.07,324.2293255434635,324.9670478402649,316.07196816906355,672.335266865605,316.345635211451,395.57305869355866,670.8097324084665
36.08,324.2293255434635,324.96062033455485,316.07196816906355,670.7003110923491,317.5718499918057,395.9816664632868,671.62694999751
36.09,324.24351483620296,324.9602842022409,316.07196816906355,669.1989494675908,316.7555116757054,393.15055515672447,670.1381707890636
36.1,324.2498214162636,324.99464758257744,316.07196816906355,669.6151796524132,317.5879679461757,394.4590649655458,670.1381707890636
36.11,324.2498214162636,324.9669720055356,316.07196816906355,669.1163203563976,316.5902493541444,391.992776095649,670.6333510759116
36.12,324.3071750171198,325.01551033150054,316.07196816906355,670.5869566182415,317.09676180906354,395.41923101943286,670.6060198295327
36.13,324.3461089770907,325.04916045546355,316.07196816906355,668.402078131476,317.1841685082064,392.9314911690636,669.337187980865
36.14,324.3665884531925,325.04916045546355,316.07196816906355,663.0918147452476,317.57549620757686,393.01560213186025,670.6169236338624
36.15,324.4585780294934,325.0766085283173,316.07196816906355,671.5788523328101,317.1644186851764,395.2055000578745,669.5681785169082
36.16,324.52391067363067,325.0766474704757,316.07196816906355,668.4093459679708,317.5165849203878,393.44445162556553,669.215969240364
36.17,324.5793950508876,325.0969199382621,316.07196816906355,665.8516291086878,318.3653272113849,394.6072706217626,669.044082652714
36.18,324.6836616549957,325.1379936673533,316.07196816906355,667.525045387253,319.6203899327057,395.4439428932678,668.6257454921677
36.19,324.74971165468105,325.1242901267992,316.07196816906355,667.2843193116297,317.0232513116791,393.1746152618044,668.6009803290635
36.2,324.8481123399938,325.1656405501733,316.07196816906355,668.587858871297,316.63028804165924,394.9537656489703,668.6009803290635
36.21,324.94238310693737,325.1789034294621,316.07196816906355,667.6114211439941,320.0478231616005,393.0574936462761,667.6391889524635
36.22,325.03875880001755,325.2133754379244,316.07196816906355,667.5099460777611,317.0636404786187,395.01353776281695,666.5513930490636
36.23,325.1412812053505,325.2611369703103,316.07196816906355,666.9000503908517,316.9330223308516,395.7830307120456,666.1799914372293
36.24,325.25794986208984,325.2471423883624,316.07196816906355,668.5678999903644,318.70011499604925,394.6132041769382,664.0375824484927
36.25,325.36664152513555,325.30229678206723,316.07196816906355,668.1568798564077,319.4538568670311,398.672622892468,665.4683665352642
36.26,325.4819451567465,325.32260204325024,316.07196816906355,668.5083143889602,318.3995553189609,396.2125442720297,665.1169258539499
36.27,325.5489953550245,325.37015861690804,316.07196816906355,669.9760545839774,317.44704242397745,397.9864887075043,664.9452319275043
36.28,325.6184927605147,325.4112589906339,316.07196816906355,669.1420795693326,316.6130674093327,397.56943253900806,664.528175759008
36.29,325.6863095044353,325.41808616586354,316.07196816906355,668.8959897237976,317.46423436208204,396.8183633298393,662.9646153090636
36.3,325.7193365538653,325.43182454940137,316.07196816906355,667.5832639139414,316.5890831389821,399.0058673379105,662.9646153090636
36.31,325.7398098812052,325.45229787674134,316.07196816906355,670.6385980193483,318.6259732257825,398.0888164020456,662.9646153090636
36.32,325.7746651624889,325.4728285925251,316.07196816906355,669.0832851086186,318.1516474895085,399.08025300906354,661.9659887498673
36.33,325.8300306636835,325.5208852654792,316.07196816906355,668.4267449143907,318.3725991470544,398.6349678749599,662.6677592361902
36.34,325.8627953659416,325.5685094755173,316.07196816906355,667.8419730683594,317.1632073790939,396.0703459561305,660.9472659873906
36.35,325.8975850604323,325.5820531482635,316.07196816906355,671.3291757095352,317.98308123325216,398.0554593690636,661.7633686009538
36.36,325.95221066061885,325.5820531482635,316.07196816906355,669.5322779461118,317.2643217179654,398.0554593690636,660.6850991792314
36.37,325.9714747314636,325.5957033995484,316.07196816906355,670.2194738172866,320.43963046439444,398.02780018872,660.5687871506785
36.38,325.9999516971319,325.6162156690466,316.07196816906355,670.638243440749,319.18332159400745,400.9596630572052,658.4745988018785
36.39,326.05525776029543,325.63673408730665,316.07196816906355,671.6023160079916,319.2935238028785,397.0306657290636,658.7442015126896
36.4,326.1169728828835,325.64354076666353,316.07196816906355,671.1661023471893,317.11244935010467,397.0306657290636,657.8720508853677
36.41,326.16407649775243,325.6710462279612,316.07196816906355,670.1440490053826,319.6440483186787,398.5150157793979,657.8406471090635
36.42,326.20505594582875,325.6845325122636,316.07196816906355,668.7282453520406,318.5703187327814,395.5975943028876,657.3579979988453
36.43,326.2890234375158,325.7120400231484,316.07196816906355,670.7379189693498,317.6091586290636,398.7072691158492,658.0546568144921
36.44,326.3485004107941,325.766716863017,316.07196816906355,671.0692962407802,317.7028268173469,396.4190196946168,656.3459917338854
36.45,326.4180675022519,325.77329398859854,316.07196816906355,669.2176990920282,319.0783376343513,393.453428817852,657.6666678928008
36.46,326.4710411350908,325.8205820663227,316.07196816906355,667.1037875648328,318.7260176800939,396.6238021581108,656.6098760961853
36.47,326.56922866332644,325.8348533425533,316.07196816906355,669.1940919457372,318.0408406523899,393.58138865091695,656.3034566490635
