Time[s],Signal A,Signal B,Signal C,Sensor A,Sensor B,Sensor C,Sensor D
87.0,321.4305813192271,320.05646217198574,316.07196816906355,696.8513067351356,391.5313053707952,316.07196816906355,522.9883881537775
87.01,321.51602246416843,320.24835683066306,316.07196816906355,695.4949021707554,392.7831174466898,316.07196816906355,521.6930694886903
87.02,321.6166039103471,320.4174662275485,316.07196816906355,694.5296059999066,392.72787901990654,316.6643009425709,518.9011729355564
87.03,321.7204503490629,320.4923171550141,316.07196816906355,693.4087113115219,394.58712317880025,318.03683575884475,516.9019214695658
87.04,321.8404044942122,320.5351432812297,316.07196816906355,692.4397320323308,395.0056775955981,319.33571250745,515.4388891765308
87.05,321.8888587870987,320.55802692321095,316.07196816906355,689.8763972543134,393.0083322457781,320.17114272906355,514.7006524333221
87.06,321.98575097617345,320.6656753463311,316.07196816906355,689.023912416943,390.6053428294368,320.17114272906355,513.8402807840984
87.07,322.05943568847664,320.74597817596145,316.07196816906355,690.0968672588483,387.7455741935256,320.17114272906355,511.6340087053041
87.08,322.164413499371,320.77948072964034,316.07196816906355,689.0968531290636,383.6823760390514,319.9231406185963,508.7659535880199
87.09,322.23993874105173,320.8241699306935,316.07196816906355,688.4704193223915,380.5006684811342,318.9017820868776,506.0052128111291
87.1,322.2617217546636,320.86075301405424,316.07196816906355,687.5596626690635,376.87957860047976,317.4608545926573,502.0586730654581
87.11,322.3488169165399,320.8958911383825,316.07196816906355,686.4591162831947,372.4675386413623,316.7767453999262,498.2299661421014
87.12,322.4137396432212,320.9089941498636,316.07196816906355,685.2852049206383,367.248994285914,316.07196816906355,493.8893440517556
87.13,322.46921377254165,320.9089941498636,316.07196816906355,685.2129631177803,363.8856051627357,316.07196816906355,490.5696992698944
87.14,322.5520314457646,320.9713016031756,316.07196816906355,683.8209244289498,360.41606586473904,316.07196816906355,487.90735097996736
87.15,322.6033982021759,321.0376631401274,316.07196816906355,683.3466314860722,355.6972703261858,316.07196816906355,486.008113224479
87.16,322.6537176194872,321.0664188496658,316.07196816906355,681.8715107272598,348.0371940655958,316.07196816906355,484.117946942292
87.17,322.7151580973798,321.11475426649,316.07196816906355,681.007714217691,344.03537490139576,316.07196816906355,483.3553713501333
87.18,322.76208749733,321.1483552003584,316.07196816906355,680.5137165427037,341.73369248513035,316.07196816906355,482.58338405318494
87.19,322.8005193084172,321.1929911121422,316.07196816906355,680.1382465001185,337.2280396765862,316.07196816906355,482.5406522079842
87.2,322.8566390577309,321.2164322418636,316.07196816906355,679.8551739017032,333.2094589876104,316.07196816906355,482.7090114559253
87.21,322.90566313588124,321.25831965710495,316.07196816906355,679.0499279519622,330.28897337811645,316.07196816906355,483.18327160540633
87.22,322.9465257574826,321.3057163629549,316.07196816906355,677.3535173537028,327.0874094186306,316.07196816906355,484.3648238293425
87.23,322.9585814298636,321.31891160586355,316.07196816906355,677.8396056713767,324.8759047435106,316.07196816906355,485.60589606789
87.24,322.9585814298636,321.31891160586355,316.07196816906355,677.9154608966095,323.570225414723,316.07196816906355,487.1461076195407
87.25,322.9585814298636,321.31891160586355,316.07196816906355,676.1765439077501,322.31793783457937,316.07196816906355,488.0850215029214
87.26,322.9585814298636,321.31891160586355,316.07196816906355,674.9853996153435,319.49441205054046,316.07196816906355,489.5442682082503
87.27,323.0021884488329,321.33660159367724,316.07196816906355,674.7497421690636,318.13281998075445,316.07196816906355,490.5306751280832
87.28,323.0200690482635,321.366662890313,316.07196816906355,673.1515457436743,317.56848866866653,316.07196816906355,491.052594330586
87.29,323.0200690482635,321.3870685812727,316.07196816906355,672.7862047614271,316.3621958766734,316.07196816906355,491.9350297868791
87.3,323.0200690482635,321.41368247210346,316.07196816906355,672.4595558878516,316.07196816906355,316.07196816906355,493.17932192704336
87.31,323.0200690482635,321.4469021827377,316.07196816906355,670.2584590169394,316.07196816906355,316.07196816906355,494.5368824586496
87.32,323.0200690482635,321.46238271546355,316.07196816906355,671.908833835303,316.07196816906355,316.07196816906355,495.65735083288007
87.33,323.0200690482635,321.46238271546355,316.07196816906355,670.817604873209,316.07196816906355,316.07196816906355,495.67937774737817
87.34,323.0200690482635,321.46238271546355,316.07196816906355,670.3749432108237,316.07196816906355,316.07196816906355,495.2462466658449
87.35,323.0200690482635,321.46238271546355,316.07196816906355,669.9678398381592,316.07196816906355,316.07196816906355,494.7935256290894
87.36,323.0200690482635,321.46682622068664,316.07196816906355,669.1133771490636,316.07196816906355,316.07196816906355,495.4108551690636
87.37,323.0200690482635,321.5003144272545,316.07196816906355,669.1133771490636,316.07196816906355,316.07196816906355,495.4108551690636
87.38,323.0200690482635,321.5219211763603,316.07196816906355,668.2194373593679,316.07196816906355,316.07196816906355,496.7641689558256
87.39,323.0200690482635,321.5809492900243,316.07196816906355,669.5759628493977,316.07196816906355,316.07196816906355,497.7519204049142
87.4,323.0200690482635,321.5853579522636,316.07196816906355,669.680083932809,316.07196816906355,316.07196816906355,496.9154961334699
87.41,323.0200690482635,321.6225272175864,316.07196816906355,666.956797313873,316.07196816906355,316.07196816906355,496.7374853790273
87.42,323.0200690482635,321.6635702028684,316.07196816906355,666.8499974198868,316.07196816906355,316.07196816906355,496.3458031010575
87.43,323.0200690482635,321.7433155447586,316.07196816906355,666.754115677341,316.07196816906355,316.07196816906355,494.8984583490636
87.44,323.03303883657145,321.7493249346636,316.07196816906355,667.0170490311432,316.07196816906355,316.07196816906355,494.4537880911439
87.45,323.04056492106355,321.7678491045002,316.07196816906355,667.7948919989506,316.07196816906355,316.07196816906355,493.68408608401273
87.46,323.04879196440544,321.88112569429126,316.07196816906355,667.1393253586807,316.07196816906355,316.07196816906355,493.0578613352433
87.47,323.06106079386353,321.89279604426355,316.07196816906355,668.5143012334051,316.07196816906355,316.07196816906355,492.5386352904264
87.48,323.08213055110195,321.9483726529481,316.07196816906355,668.3806025559561,316.07196816906355,316.07196816906355,491.7405956895618
87.49,323.1020525394636,321.9922317711528,316.07196816906355,668.4105716211643,316.07196816906355,316.07196816906355,490.33693994002846
87.5,323.1020525394636,322.0512045459602,316.07196816906355,670.2349461516633,316.07196816906355,316.07196816906355,489.0209183938259
87.51,323.1020525394636,322.05676302666353,316.07196816906355,669.8571703233882,316.07196816906355,316.07196816906355,487.5113932629314
87.52,323.1020525394636,322.07531794030945,316.07196816906355,669.7362241779955,316.07196816906355,316.07196816906355,486.7001092290636
87.53,323.1020525394636,322.0772588994636,316.07196816906355,672.0900931855844,316.07196816906355,316.07196816906355,485.7745279109392
87.54,323.1020525394636,322.0772588994636,316.07196816906355,673.9420715575703,316.07196816906355,316.07196816906355,485.3956719501677
87.55,323.0932372645723,322.09583840815674,316.07196816906355,676.1686898892931,316.07196816906355,316.07196816906355,484.83897535069775
87.56,323.0815566666635,322.0977547722636,316.07196816906355,676.8518275776535,316.07196816906355,316.07196816906355,483.0197063421131
87.57,323.0815566666635,322.1536203727545,316.07196816906355,676.6288980683823,316.07196816906355,316.07196816906355,482.2822258966108
87.58,323.0815566666635,322.1592423906636,316.07196816906355,678.6707030654803,316.07196816906355,316.07196816906355,481.78948666821327
87.59,323.0916734294776,322.1972376396602,316.07196816906355,679.8737103690636,316.07196816906355,316.07196816906355,480.5064409317588
87.6,323.1020525394636,322.2002341362636,316.07196816906355,680.4626531252097,316.07196816906355,316.07196816906355,480.64276718010063
87.61,323.1020525394636,322.2002341362636,316.07196816906355,682.2637054020496,316.4132695421037,316.07196816906355,479.3053356451713
87.62,323.1020525394636,322.2002341362636,316.07196816906355,682.9480912890635,317.8803682163023,316.07196816906355,479.5035819748293
87.63,323.1020525394636,322.2002341362636,316.07196816906355,685.0043048847398,317.9485477371715,316.07196816906355,479.91230657103233
87.64,323.09154225589174,322.2002341362636,316.07196816906355,685.009664555477,318.11556245585683,316.07196816906355,480.0120476864263
87.65,323.0635489928215,322.2002341362636,316.07196816906355,684.2201860806811,317.39744651097595,316.07196816906355,480.10920837143465
87.66,323.04056492106355,322.2002341362636,316.07196816906355,684.1615350910765,316.71946148503747,316.07196816906355,480.131690294309
87.67,323.04056492106355,322.2002341362636,316.07196816906355,683.9728849290635,317.09676180906354,316.07196816906355,480.5513473890636
87.68,323.04056492106355,322.2002341362636,316.07196816906355,685.7325806337676,318.8564575137677,316.07196816906355,481.9570465771152
87.69,323.04056492106355,322.2002341362636,316.07196816906355,687.3113285254568,319.3789526502962,316.07196816906355,482.8655281885625
87.7,323.04056492106355,322.2002341362636,316.07196816906355,687.2810171791731,320.0271776689291,316.07196816906355,483.23567955215583
87.71,323.03292201009646,322.1817058672524,316.07196816906355,687.3772965416509,320.5358749838887,316.07196816906355,484.5860747266312
87.72,322.9883352884073,322.161199746516,316.07196816906355,687.5596626690635,322.0210161749131,316.07196816906355,485.16291876906354
87.73,322.9585814298636,322.0832109009247,316.07196816906355,686.2425240977934,321.92838507779345,316.07196816906355,486.943032462251
87.74,322.9585814298636,322.05861175439014,316.07196816906355,686.4841991323274,321.4394683296732,316.07196816906355,488.2372996890636
87.75,322.9585814298636,322.0011331287098,316.07196816906355,686.8986933167236,321.92865562331446,316.07196816906355,488.6204864277578
87.76,322.9585814298636,321.9581819776701,316.07196816906355,686.5968895401563,323.08235395611547,316.07196816906355,490.6386863281519
87.77,322.9374604329432,321.842884494821,316.07196816906355,686.4724795922604,323.75792046906355,316.07196816906355,492.3615202056252
87.78,322.9175896842636,321.77496732112365,316.07196816906355,686.0224722090635,325.6721304596323,316.07196816906355,493.3711694452133
87.79,322.9175896842636,321.7512085053739,316.07196816906355,686.4572901009283,326.9098803171988,316.07196816906355,494.4818079988488
87.8,322.9175896842636,321.675242602428,316.07196816906355,687.0472658490636,326.8017338443696,316.07196816906355,496.2582795754396
87.81,322.9099631699947,321.59325706164066,316.07196816906355,686.738770170027,327.9616895671365,316.07196816906355,498.9178383770786
87.82,322.8864994948132,321.49234153273534,316.07196816906355,685.7219391766098,329.7243756196821,316.07196816906355,500.2760547766144
87.83,322.8765979386636,321.44786343917207,316.07196816906355,685.2687303380817,329.8472688729909,316.07196816906355,500.7799007184823
87.84,322.8765979386636,321.4159349685242,316.07196816906355,685.7376328664129,329.3370036237621,316.07196816906355,502.4273774204318
87.85,322.8765979386636,321.40089509706354,316.07196816906355,685.1379810167286,331.01229527468854,316.07196816906355,504.5695384091076
87.86,322.8701929784136,321.39267010330894,316.07196816906355,684.2979576700207,332.14359366810646,316.07196816906355,505.8673145293435
87.87,322.8617917201529,321.3698315522479,316.07196816906355,685.1719016862127,332.6428895262127,316.07196816906355,506.6189719700616
87.88,322.8820600887648,321.3599033514636,316.07196816906355,683.2376651783311,332.9810632290636,316.07196816906355,506.89260826863983
87.89,322.9175896842636,321.3599033514636,316.07196816906355,681.6310777426177,333.56550099236824,316.07196816906355,508.58046388959264
87.9,322.9228612227477,321.3599033514636,316.07196816906355,681.7062996453809,333.7104580527463,316.07196816906355,509.7266771296471
87.91,322.9672696303435,321.3751481816522,316.07196816906355,682.265340972699,334.86163334360566,316.07196816906355,510.2024703704136
87.92,323.0340759277351,321.40089509706354,316.07196816906355,682.1116998110157,334.2470686968722,316.07196816906355,510.7827597690636
87.93,323.0969285712636,321.40089509706354,316.07196816906355,681.2374135137479,333.836403141515,316.07196816906355,511.1023806078559
87.94,323.1391746642789,321.4218890195726,316.07196816906355,680.6396308876631,334.264729990464,316.07196816906355,510.5508981584263
87.95,323.2051037383147,321.4418868426636,316.07196816906355,680.8883421553294,334.2671362059307,316.07196816906355,510.6655274758221
87.96,323.2684995224724,321.4418868426636,316.07196816906355,680.473429855128,333.38087621977314,316.07196816906355,510.3123323477961
87.97,323.3154227736607,321.4524565642665,316.07196816906355,681.8275265842309,333.3066996065227,316.07196816906355,509.5541941120987
87.98,323.356644073036,321.46238271546355,316.07196816906355,681.000751769701,333.771650530578,316.07196816906355,508.427472447077
87.99,323.38177611226337,321.48318807594285,316.07196816906355,681.0724873245009,334.4947633692475,316.07196816906355,507.8393392779065
88.0,323.4028089769308,321.51176547138783,316.07196816906355,682.1081171324503,335.03065050906355,316.07196816906355,507.2383920890613
88.01,323.4528476007847,321.5238703338636,316.07196816906355,683.0386543526175,335.3562008038569,316.07196816906355,505.9674717109552
88.02,323.4709782498636,321.5442903719342,316.07196816906355,684.2839343938508,333.98780205471405,316.07196816906355,505.2784926988469
88.03,323.49995736441554,321.5853579522636,316.07196816906355,684.8116416308325,332.001985633344,316.07196816906355,503.0876171197
88.04,323.52491313913674,321.59073606928627,316.07196816906355,684.9976785690635,332.17329218779366,316.07196816906355,501.3739305502574
88.05,323.5516295093316,321.6289465249473,316.07196816906355,685.6991764602782,332.5133986514496,316.07196816906355,500.53482336906353
88.06,323.58168260761823,321.64903248029134,316.07196816906355,688.0767141017765,331.6479009844385,316.07196816906355,498.56055637201626
88.07,323.6362897615192,321.6657530133216,316.07196816906355,690.6915386114421,332.0817473719324,316.07196816906355,496.08808184770845
88.08,323.69728342938475,321.6673414434636,316.07196816906355,691.3805114747886,332.74699216333846,316.07196816906355,494.0788919329973
88.09,323.7169287234635,321.7054412214115,316.07196816906355,691.8800471346067,332.9810632290636,316.07196816906355,492.4194538396816
88.1,323.7423866470685,321.7083331890636,316.07196816906355,693.5100019148995,332.4301485153105,316.07196816906355,490.4783635119357
88.11,323.77841634186353,321.7083331890636,316.07196816906355,695.8305938234101,332.2782249077678,316.07196816906355,487.1424306599604
88.12,323.82055175716584,321.72687170601114,311.8451186686305,698.3375895462751,333.40153605955555,316.07196816906355,485.37768272261104
88.13,323.89191018790626,321.7288290618636,311.24689128210593,698.6715410993291,334.0058568690636,316.07196816906355,484.5247859181974
88.14,323.93238748709905,321.7288290618636,311.2349421882635,699.2956527236128,334.4936852863382,316.07196816906355,482.9690098007424
88.15,323.9600097748716,321.7843667283897,311.03130749364647,701.0310628686361,334.5896654090733,316.07196816906355,480.8097777996114
88.16,323.9833750698636,321.85232694342,310.8389598761803,701.9067736290635,335.70022197921764,316.07196816906355,477.9022783751237
88.17,323.9833750698636,321.8723001714636,310.74040547182153,701.614000334052,336.4946911990404,316.07196816906355,476.4521728290636
88.18,323.99392839476826,321.8723001714636,310.6646219821435,702.9548382830407,336.36753685377647,316.07196816906355,475.8546320542778
88.19,324.01417626750737,321.9119453382206,310.56126949396224,703.9563609090635,336.8463552853682,316.07196816906355,475.4273791890636
88.2,324.0243668154636,321.9614982098892,310.46216375062505,705.9205931267879,338.48326021612746,316.07196816906355,474.9445394672284
88.21,324.0243668154636,321.98677167063886,310.3636564867737,708.5573318236513,340.31834998892634,316.07196816906355,475.04384811970624
88.22,324.0243668154636,322.00501504701816,310.2347067030525,710.7047909954459,341.96658503816946,316.07196816906355,476.0349321977121
88.23,324.0349303883047,322.0351193849868,310.0615924126219,708.5555589306542,342.71660280906355,316.07196816906355,475.1730909944085
88.24,324.0659406438511,322.11503689220854,309.9059242091186,707.5383815569867,342.4627839698956,316.07196816906355,475.3759693913193
88.25,324.0858544338636,322.21152941176365,309.76969429137887,709.0567137644233,342.20420598906355,316.07196816906355,475.33149744651786
88.26,324.0858544338636,322.2799159409481,309.6203695605072,710.1051227490635,344.80872312429807,316.07196816906355,473.58582296839626
88.27,324.1028393636529,322.3387657405188,309.50785746677155,712.1569297320877,343.9096060771332,316.07196816906355,473.0588802274701
88.28,324.1473420522636,322.39544502715984,309.4162593616411,712.5641683775129,345.1779460248537,316.07196816906355,471.3909035535461
88.29,324.1473420522636,322.4976333497661,309.2836510646251,711.3168326002376,345.9778999402377,316.07196816906355,469.7754373057356
88.3,324.1473420522636,322.6062122855114,309.2323539941812,712.3910991780023,345.86978011204314,316.07196816906355,468.19038693316026
88.31,324.1473420522636,322.7637087208684,309.1000100939244,711.9825733917655,347.6708426368195,316.07196816906355,465.6348877273142
88.32,324.1473420522636,322.8641200513029,309.0665382840547,712.0549381698604,349.27798960986047,316.07196816906355,464.9626456449343
88.33,324.1473420522636,323.00551902816284,309.0071268975693,712.3373323548861,352.19857974830563,316.07196816906355,462.9968803359244
88.34,324.1659441064168,323.1463830627427,308.9467563042369,712.3983096260533,353.9641372726305,316.07196816906355,460.8920423316175
88.35,324.1868888388312,323.2928322226605,308.84705208141406,711.4193570551578,355.74947946296925,316.07196816906355,458.7906804273374
88.36,324.1883337978636,323.38433399718883,308.7441382049107,711.566753124399,358.14011806636125,316.07196816906355,457.81782947777447
88.37,324.2264602204461,323.4820849633339,308.67039200498897,712.343495463837,358.3222341441256,316.07196816906355,458.24866092237954
88.38,324.2293255434635,323.62880466877266,308.60865023776626,712.4444089431552,359.6926988772468,316.07196816906355,457.2385730711136
88.39,324.2293255434635,323.729082776034,308.5909745970636,711.2295529755062,361.81287189358267,316.07196816906355,456.5770851731918
88.4,324.2293255434635,323.7994287106581,308.52179282801444,708.5679322890635,362.7000787890636,316.07196816906355,456.295605104093
88.41,324.24788045710943,323.93523436383094,308.4884952330636,710.1164159749762,363.6291690006112,316.07196816906355,456.4147824556632
88.42,324.2498214162636,324.0538644755973,308.4462019995408,709.2304654764981,366.136720161629,316.07196816906355,455.44390320906354
88.43,324.2498214162636,324.127676262312,308.3991270788937,707.8141248312887,367.8240469890636,316.07196816906355,454.68718123817655
88.44,324.2498214162636,324.2346401232806,308.36107444145324,708.5310028254526,367.58631331086906,316.07196816906355,453.9067127490636
88.45,324.2498214162636,324.3562318886666,308.3450241234636,708.4241803860062,368.4052320573549,316.07196816906355,453.9067127490636
88.46,324.2498214162636,324.4768009099999,308.3450241234636,708.1161253682349,371.01960975699353,316.07196816906355,453.9067127490636
88.47,324.2498214162636,324.58591888719985,308.3450241234636,706.2137189508117,374.2774348873154,316.07196816906355,454.1840424039204
