Time[s],Signal A,Signal B,Signal C,Sensor A,Sensor B,Sensor C,Sensor D
9.4,332.4686664090636,325.3975902930636,316.07196816906355,678.9258951281257,316.9723559603421,392.486382299466,706.6865648850696
9.41,332.4686664090636,325.3975902930636,316.07196816906355,679.8011447314152,316.2170973947731,391.717744028133,708.8501768542177
9.42,332.4686664090636,325.41743234752124,316.07196816906355,683.47794239434,317.4235541537486,386.5306157465126,708.6350460245471
9.43,332.4999902514638,325.3787750818332,316.07196816906355,683.1479567926727,316.78423049267275,389.6731659394454,711.1299163890635
9.44,332.5727731453639,325.3969364747212,316.07196816906355,688.297700602306,317.4759661996728,385.7621311942257,711.3331965050812
9.45,332.62321348832467,325.29827959099845,316.07196816906355,689.5366433196695,316.28979010683287,384.180247433998,711.9777486633084
9.46,332.6956274565144,325.4142882806337,316.07196816906355,689.6092499490635,316.07196816906355,387.12332154490485,710.8455873936455
9.47,332.77891448522445,325.3584226801428,316.07196816906355,687.4809216249405,316.07196816906355,385.31275918308575,711.1592992723096
9.48,332.84475747659445,325.3369286583374,316.07196816906355,688.7812166879436,316.07196816906355,388.021085864465,709.1337188081203
9.49,332.9222052311438,325.3957374661624,316.07196816906355,688.2219232613899,316.509434127694,391.90669752906354,709.7245041432312
9.5,333.02037636268125,325.3975902930636,316.07196816906355,689.3875051012403,317.0228475429849,392.1100206864141,707.9460526653279
9.51,333.1229192638869,325.3975902930636,316.07196816906355,690.4842699985775,317.09676180906354,398.339118149441,704.3543887092524
9.52,333.2096782934493,325.3975902930636,316.07196816906355,689.7334672357553,317.09676180906354,398.5094880425037,703.7630766302105
9.53,333.27414601175445,325.3975902930636,316.07196816906355,687.5449691778533,316.2710507303318,402.7201540017738,702.8784440163532
9.54,333.3044860522603,325.3975902930636,316.07196816906355,687.4930121403053,316.07196816906355,403.8953484059676,701.3979615372162
9.55,333.30899719386355,325.3975902930636,316.07196816906355,686.6807258582575,316.07196816906355,405.4943318728723,699.0456686622458
9.56,333.3721511267222,325.3975902930636,316.07196816906355,686.9169756352611,317.2182879876566,410.9190688078632,696.6681289711603
9.57,333.39098068506354,325.3975902930636,316.07196816906355,684.4976715041711,316.334362481411,409.6210385388045,696.1727929156789
9.58,333.39098068506354,325.3975902930636,316.07196816906355,683.1049462036019,316.07196816906355,411.0867701382873,695.591968574749
9.59,333.39098068506354,325.3975902930636,316.07196816906355,679.8921566545836,316.50853025970355,414.5710828613983,692.4868950852308
9.6,333.39098068506354,325.278556412603,316.07196816906355,679.8116878083835,317.0347392483835,413.2233357536887,691.6588372290636
9.61,333.39098068506354,325.2746150562636,316.07196816906355,678.5541901773742,316.65692242836286,416.837551318606,691.7736674060128
9.62,333.39098068506354,325.2548529357098,316.07196816906355,675.19607259268,317.0330011983701,414.45215760906353,691.7853377559852
9.63,333.39098068506354,325.2541191834636,316.07196816906355,673.6024344494016,316.3318906791513,414.5055206634856,690.1483282962746
9.64,333.3750328464379,325.2541191834636,316.07196816906355,672.333940782635,316.51127465707145,414.5396360437613,690.4257522321462
9.65,333.32295283365306,325.1149809013735,316.07196816906355,670.867614802841,316.1443165504603,411.7466122176232,689.976429411101
9.66,333.30899719386355,325.0114972396063,316.07196816906355,670.6505676090635,316.07196816906355,416.3296758881457,691.6008462065633
9.67,333.30899719386355,324.9486302489668,316.07196816906355,665.5552177962542,317.3458051098691,413.93976078906354,690.1883833804876
9.68,333.29343057847194,324.9466810914636,316.07196816906355,666.2333708883496,317.17626734924204,413.9912792149336,692.5805940173234
9.69,333.2100738637944,324.8475384555554,316.07196816906355,669.6043127406547,316.2244984544412,414.7737993409139,690.5386660449888
9.7,333.1860219570636,324.8243432763076,316.07196816906355,667.0717873586302,316.07196816906355,414.00166242409415,690.0906959515484
9.71,333.1543414864766,324.74419416572323,316.07196816906355,668.3036385040048,317.3861512354759,415.760866227851,689.5538168114886
9.72,333.1450302114636,324.7218803090059,316.07196816906355,665.8988556987936,316.2580952891349,414.1083413924308,691.1464404090635
9.73,333.1137207161743,324.68191745622045,316.07196816906355,665.5265994090636,316.07196816906355,410.59239533924034,691.1198388157565
9.74,333.1040384658636,324.6802347450636,316.07196816906355,667.2815011291198,317.38814548389934,413.642771493017,690.8373954406361
9.75,333.1040384658636,324.6603906410186,316.07196816906355,665.3795497200728,317.16983164518285,408.71823838329743,691.6588372290636
9.76,333.05684466915426,324.6597388722636,316.07196816906355,663.3199563549716,316.6732002505406,411.4332057274639,691.6588372290636
9.77,333.0425508474636,324.6597388722636,316.07196816906355,666.8836229488024,316.58436498906354,409.3532292168633,691.9512518463011
9.78,333.0425508474636,324.6400423385027,316.07196816906355,660.6300903062233,316.58436498906354,407.3886444701268,693.141006518532
9.79,333.0425508474636,324.6392429994636,316.07196816906355,662.4377176590576,317.4586164433475,408.5470466057354,692.1712340490635
9.8,333.0425508474636,324.65907070681027,316.07196816906355,659.3630641439494,316.25857694214574,405.2625932374718,692.3055496522837
9.81,333.0425508474636,324.6597388722636,316.07196816906355,656.6672030524069,316.07196816906355,405.7414116690636,694.4500922613788
9.82,333.0425508474636,324.67958092672126,316.07196816906355,655.4022654195711,316.9731593985559,404.96799376019374,695.5356459162945
9.83,333.0425508474636,324.71963191175973,316.07196816906355,652.2118676115867,317.4801104651529,401.779606597331,696.8652275319414
9.84,333.0425508474636,324.7410746938831,316.07196816906355,652.0582448961891,317.1697804055009,402.679748438136,698.7265212781152
9.85,333.0425508474636,324.8012403284875,316.07196816906355,648.6908816232748,317.09676180906354,396.8758255588214,700.7271398188213
9.86,333.08977538798206,324.8230602346704,316.07196816906355,647.3403101842933,316.33196446429343,399.4786620324864,703.102000699332
9.87,333.1040384658636,324.8634022611026,316.07196816906355,647.0803138890635,316.07196816906355,398.8857471761916,702.3930382112436
9.88,333.1040384658636,324.8843633902152,316.07196816906355,644.4808633335851,316.07196816906355,398.3539735580465,704.5230328498252
9.89,333.1040384658636,324.9447114380875,316.07196816906355,641.8229892926903,317.38173437488746,403.6918243890636,705.1993700075906
9.9,333.1040384658636,324.96641861697,316.07196816906355,640.0998151837287,316.2650249437286,403.8914767355956,703.9896359585543
9.91,333.1040384658636,325.0068877178136,316.07196816906355,640.3462022194192,316.5114119794192,407.569500051714,703.7802193782204
9.92,333.1040384658636,325.0081687098636,316.07196816906355,639.068077542024,316.13400507685463,410.7392359703287,701.201250348431
9.93,333.1040384658636,325.0278242518787,316.07196816906355,641.5614168648423,316.07196816906355,412.7461774877937,700.2109963532736
9.94,333.1040384658636,325.0286645826636,316.07196816906355,638.9571846222395,316.07196816906355,418.8602336663815,697.1934545877225
9.95,333.1040384658636,325.0881579526401,316.07196816906355,641.7869698458317,316.9263181308588,418.27670591982906,696.6044769885926
9.96,333.1040384658636,325.0901522010636,316.07196816906355,639.4409692038107,316.3398184827504,421.00190275411,694.9030981907664
9.97,333.1040384658636,325.10997990841025,316.07196816906355,642.1849443567511,316.91982913753026,423.5097203614743,693.7084245090635
9.98,333.1040384658636,325.1106480738636,316.07196816906355,637.7759070429988,316.2292227531216,420.8481775593482,693.7358971769647
9.99,333.1040384658636,325.1106480738636,316.07196816906355,637.7064239846195,316.5089914168415,424.62428592433815,693.8286840427176
10.0,333.1040384658636,325.1304552853375,316.07196816906355,639.6560037028793,316.58436498906354,422.2035081399938,692.269331395459
10.01,333.1040384658636,325.1509716540103,316.07196816906355,639.0286701273914,317.4624532707357,423.1629035490636,693.252210975583
10.02,333.1040384658636,325.191295234157,316.07196816906355,638.4320496172943,317.15924347729435,422.97054158448645,691.8511991936406
10.03,333.1040384658636,325.2513460918737,316.07196816906355,637.9882832273653,317.09676180906354,422.3776410753026,692.5399117594027
10.04,333.11998630448926,325.2541191834636,316.07196816906355,636.1033741365513,316.6583120485387,426.7485663135832,689.50654718005
10.05,333.1245343386635,325.2739509899848,316.07196816906355,637.1252122716935,317.4627832542878,425.2863723017457,688.8037129579288
10.06,333.1245343386635,325.2944161189757,316.07196816906355,636.9726922342522,316.4929144542172,429.5976729964639,687.0472658490636
10.07,333.1245343386635,325.33480733550255,316.07196816906355,636.4110171872793,316.9146887726321,431.9004744873842,686.367464888795
10.08,333.1245343386635,325.3361026746636,316.07196816906355,638.0543291278758,317.530347898973,430.1434043039858,683.380652585333
10.09,333.1245343386635,325.43523096346075,316.07196816906355,634.976662719466,316.3368199365597,434.7962338759322,681.1389042003093
10.1,333.1245343386635,325.4385820386635,316.07196816906355,631.5828741177509,316.07196816906355,429.92259816713687,677.8241230890635
10.11,333.1245343386635,325.4385820386635,316.07196816906355,632.073846601913,316.94980230191305,430.9051026727886,677.3679730927886
10.12,333.1245343386635,325.4385820386635,316.07196816906355,634.4708819672057,317.54677739060946,428.5436030517564,675.8705425764332
10.13,333.1245343386635,325.4385820386635,316.07196816906355,630.2020733159766,316.4639804305855,425.38870819463614,676.1862364059972
10.14,333.1245343386635,325.4385820386635,316.07196816906355,625.566773864036,316.51014738406747,427.7600765784216,674.2373453490635
10.15,333.1245343386635,325.47826409799166,316.07196816906355,624.1685023802872,316.58436498906354,423.4544265958344,674.2373453490635
10.16,333.1245343386635,325.47957378426355,316.07196816906355,625.5448473793148,316.58436498906354,421.9131963993055,674.0124318393055
10.17,333.1245343386635,325.459754275266,316.07196816906355,626.0720442690636,316.58436498906354,420.2416780385616,673.2125517090635
10.18,333.1245343386635,325.4590779114636,316.07196816906355,623.9028102820063,316.1505186015696,416.7770495516877,673.2400817654085
10.19,333.1245343386635,325.4590779114636,316.07196816906355,623.5100601690635,317.3814289863828,420.5485688907578,673.3332601023319
10.2,333.1245343386635,325.4590779114636,316.07196816906355,623.5100601690635,316.2652524479167,416.3185773730245,671.7412062900208
10.21,333.1245343386635,325.4590779114636,316.07196816906355,623.5100601690635,316.07196816906355,420.0882459347808,672.8140525038004
10.22,333.10847377273745,325.4590779114636,316.07196816906355,623.0604176124026,316.9712532823855,416.5984833590923,673.1158132390349
10.23,333.1040384658636,325.4590779114636,316.07196816906355,622.9976633490636,316.6828599553912,417.0141417090636,672.6433546767729
10.24,333.1040384658636,325.4590779114636,316.07196816906355,623.4425939045678,317.0292955445678,416.5065798654571,671.5738492902597
10.25,333.1040384658636,325.4392379065932,316.07196816906355,624.8272950709359,316.2186058910111,414.8114256642002,671.5222324842002
10.26,333.1040384658636,325.4385820386635,316.07196816906355,624.6224695661089,316.07196816906355,416.619387099761,673.8971630506783
10.27,333.1040384658636,325.4385820386635,316.07196816906355,625.8371062279189,316.94013644830056,413.9034236561764,672.9857915211662
10.28,333.07198497039167,325.4385820386635,316.07196816906355,626.9408007798498,317.09676180906354,415.9024353204552,674.2083744328608
10.29,333.0630467202636,325.4385820386635,316.07196816906355,629.7144150144462,316.22423610726935,414.45215760906353,674.0173016586828
10.3,333.0630467202636,325.4385820386635,316.07196816906355,627.0292958098383,317.867351287487,414.57223677903687,675.2621389890636
10.31,333.0630467202636,325.4385820386635,316.07196816906355,628.7799548842249,316.8042467620492,415.3644944941845,675.6033132876925
10.32,333.0630467202636,325.4385820386635,316.07196816906355,630.0457922858767,317.03404853747014,411.957447112355,676.7993294490635
10.33,333.0630467202636,325.4385820386635,316.07196816906355,630.5542702949973,316.3306568276088,414.534225133342,676.881396973342
10.34,333.0630467202636,325.4385820386635,316.07196816906355,629.3695350620152,316.07196816906355,415.3762898689809,678.3365199090636
10.35,333.094620612312,325.4385820386635,316.07196816906355,628.7078299078419,316.5105634502853,413.13675298863234,678.6322364114092
10.36,333.1040384658636,325.4385820386635,316.07196816906355,629.480057006502,316.16135067034435,414.2251945120255,680.6130702861016
10.37,333.1040384658636,325.4782436021188,316.07196816906355,629.6588220090636,316.5065032178836,414.39135865198966,681.4109008290635
10.38,333.13528237435986,325.47957378426355,316.07196816906355,629.2247522165561,316.15029519655604,418.3567156584784,681.4109008290635
10.39,333.1450302114636,325.578527858142,316.07196816906355,630.4527870304154,316.07196816906355,415.1539096491009,681.9789644395883
10.4,333.1768480043983,325.6217372571789,316.07196816906355,630.6836156490635,316.07196816906355,416.03562979943325,684.4852817490636
10.41,333.1860219570636,325.682581305173,316.07196816906355,634.1832264916325,317.3843230036221,417.6402188875488,684.7126424660339
10.42,333.2499055429939,325.6845325122636,316.07196816906355,630.732852884291,316.7091725568919,418.3270540313623,685.3179962675312
10.43,333.2680054482635,325.7823183213923,316.07196816906355,630.5430529038139,316.58436498906354,419.4394695771696,684.6219379809576
10.44,333.2995485965028,325.8068170381502,316.07196816906355,631.118505276483,316.58436498906354,416.9121398988998,687.4570644290012
10.45,333.3563938997136,325.8471734116934,316.07196816906355,630.3178688485348,317.0234378241216,418.7003043709231,687.1217519499933
10.46,333.3704848122636,325.9277877785904,316.07196816906355,631.0205759962447,316.24740464188244,419.6880086795042,687.6715455395041
10.47,333.4176560635128,325.9701424997316,316.07196816906355,633.3684663577376,316.07196816906355,420.6681869035932,688.0720594890636
10.48,333.4319724306636,325.99117331481165,316.07196816906355,628.9849853477798,316.07196816906355,423.0794832971803,688.0164459878081
10.49,333.4319724306636,326.03159732473506,316.07196816906355,630.7378620756034,316.50800556535984,422.4988434191054,687.144281013375
10.5,333.4319724306636,326.0329623498636,316.07196816906355,632.5372152445881,316.13729671402626,426.142193867208,687.3694814653522
10.51,333.4319724306636,326.0329623498636,316.07196816906355,634.4865018718667,316.07196816906355,425.0404628198913,684.7121936064196
10.52,333.46426572784725,326.0329623498636,316.07196816906355,633.8843044347808,316.9704539433463,426.0457402898112,685.2227601449787
10.53,333.4729641762636,326.0329623498636,316.07196816906355,635.7054980058214,316.70726234154694,425.19059918732586,683.9728849290635
10.54,333.4890329405388,326.0329623498636,316.07196816906355,631.9400843872583,316.1463743360894,425.2190700042323,683.6614993319622
10.55,333.4934600490636,326.0329623498636,316.07196816906355,631.1960124690636,316.07196816906355,426.8148807100277,682.5847609519379
10.56,333.4934600490636,326.0329623498636,316.07196816906355,631.9572640278393,316.8332197278393,424.86827289332393,683.3470578002265
10.57,333.4934600490636,326.0329623498636,316.07196816906355,635.1821645880951,316.2506593864831,426.5859643563117,682.9480912890635
10.58,333.4934600490636,326.0329623498636,316.07196816906355,636.2423914929918,316.07196816906355,423.7334635568954,682.9480912890635
10.59,333.4934600490636,326.0131243945805,316.07196816906355,634.5731399757796,316.07196816906355,425.6730822809743,682.5588951604643
10.6,333.4934600490636,326.0124664770635,316.07196816906355,636.510536947247,316.96802518241947,429.8240622090636,680.7490604021297
10.61,333.4934600490636,325.9926428688914,316.07196816906355,638.1480956963485,317.09676180906354,431.182026509364,677.8838644591009
10.62,333.4934600490636,325.99197060426354,316.07196816906355,638.8190444891547,316.197808728881,435.68558054053335,676.2869326290636
10.63,333.4934600490636,325.99197060426354,316.07196816906355,640.439823267195,316.46143279359643,434.4135492861216,676.1985995164702
10.64,333.4934600490636,325.99197060426354,316.07196816906355,640.4915343542694,316.58436498906354,434.3398850696911,674.0290211987499
10.65,333.4934600490636,325.99197060426354,316.07196816906355,638.6721874613683,316.14762253474294,435.0774372507482,673.3617821589204
10.66,333.4934600490636,325.99197060426354,316.07196816906355,638.7932401852997,316.07196816906355,430.8436724428324,674.690504997497
10.67,333.4934600490636,325.99197060426354,316.07196816906355,640.6193917079705,316.07196816906355,432.61989806894974,676.0002384099245
10.68,333.4934600490636,325.99197060426354,316.07196816906355,639.6424723276566,316.9313539668057,424.7656971987218,674.9246846913479
10.69,333.5255073957737,325.99197060426354,316.07196816906355,641.1340164293439,316.22693336412976,425.477563951986,678.8489167290635
10.7,333.5344517946636,325.99197060426354,316.07196816906355,640.5714006218093,316.07196816906355,422.0356879335074,678.9385349328816
10.71,333.5986079757021,325.99197060426354,316.07196816906355,639.1090631388622,316.07196816906355,418.7169101270656,682.32269867273
10.72,333.6164352858636,325.99197060426354,316.07196816906355,638.8819647690635,317.8623277490637,420.2697860785195,682.298199955972
10.73,333.6324056699493,325.99197060426354,316.07196816906355,638.1049416361683,316.5675071336855,416.60632098085097,683.8892228258812
10.74,333.6690215467065,325.99197060426354,316.07196816906355,637.8571711290635,316.07196816906355,418.9625490633991,682.6315591783022
10.75,333.6779229042636,325.99197060426354,316.07196816906355,637.4188381950137,316.07196816906355,418.31115743241855,685.2699006524185
10.76,333.7563975020402,325.99197060426354,316.07196816906355,640.3114125249285,316.91957908788214,416.5017448890636,683.9118256744051
10.77,333.7963767515239,326.01178396449933,316.07196816906355,640.0633243317955,316.2285340917955,416.2135073307026,685.2218378307026
10.78,333.8169054177204,325.9927904391756,316.07196816906355,640.7735432168865,316.07196816906355,415.2727488187699,683.944867070946
10.79,333.82139401386354,325.99197060426354,316.07196816906355,640.9315520490635,316.07196816906355,420.2108542954576,683.5580033726714
10.8,333.82139401386354,325.99197060426354,316.07196816906355,643.6244965779065,316.9696156621487,418.3238115842853,684.1028963989959
10.81,333.82139401386354,325.952343883792,316.07196816906355,640.0597887937374,316.219841792141,415.5334460728495,686.0224722090635
10.82,333.82139401386354,325.9509788586636,316.07196816906355,642.5268278125786,316.07196816906355,417.04585497304697,686.2147460413876
10.83,333.8371143483012,325.93126182903,316.07196816906355,640.8601464778155,316.07196816906355,415.1098250762954,687.0472658490636
10.84,333.8418898866635,325.9304829858636,316.07196816906355,643.9934509825284,316.9655410826361,417.0072120544699,687.2549956190661
10.85,333.8418898866635,325.8908685629157,316.07196816906355,644.9566176321933,316.220186122804,414.89025074140176,688.2206648147999
10.86,333.8418898866635,325.8894912402636,316.07196816906355,643.7591708589006,316.49582076898025,414.6780344248433,689.0968531290636
10.87,333.87383885318417,325.8498686189666,316.07196816906355,644.3614871720488,316.1503894775709,415.1873240705268,689.0968531290636
10.88,333.88288163226355,325.8484994946636,316.07196816906355,647.5526658727869,316.9389210430435,414.1962317941718,689.0683556675224
