Time[s],Signal A,Signal B,Signal C,Sensor A,Sensor B,Sensor C,Sensor D
55.6,308.2157853479359,305.7830400234636,316.07196816906355,611.2731694295678,352.8887495706237,319.9720376223353,423.6089326833499
55.61,308.2425447594636,305.7830400234636,316.07196816906355,614.6757507607142,355.43826398161224,321.1247951945748,422.2448196212095
55.62,308.25279679503814,305.7830400234636,316.07196816906355,613.8262808662327,357.47259003472533,318.8997304500103,423.9750750542237
55.63,308.26304063226354,305.77211777284845,316.07196816906355,613.7479722850256,360.1314581254509,319.6414842849914,423.1801651731357
55.64,308.26304063226354,305.7625441506636,316.07196816906355,611.7869271755218,359.6411968480749,318.69340874646906,425.0935778742525
55.65,308.26304063226354,305.7516567430322,316.07196816906355,613.7294952556965,362.2101946357471,319.65247417198674,423.6847079746788
55.66,308.27327422155264,305.7420482778636,316.07196816906355,611.7912682013808,363.1793071381113,319.65874590906355,425.5529313754461
55.67,308.3087361806712,305.7420482778636,316.07196816906355,611.7532770515586,362.25381805141456,320.1659285790232,423.6961590188121
55.68,308.36011523460616,305.74901892420286,316.07196816906355,613.1798410381207,365.5824646206096,319.25267347880083,426.8899406953958
55.69,308.393580895714,305.7555489092769,316.07196816906355,612.2373301290636,365.2530426554443,318.6399165680483,423.7170443131953
55.7,308.4140706197522,305.7420482778636,316.07196816906355,612.2373301290636,364.76781311484064,319.5215157927311,426.7817716771065
55.71,308.4493891077612,305.7420482778636,316.07196816906355,610.7619777668884,363.2743137068885,318.79213326657214,427.2620781090636
55.72,308.510524197149,305.7420482778636,316.07196816906355,613.924290080375,364.5942540639703,317.7518447467353,427.2620781090636
55.73,308.56511290476453,305.7490435192502,316.07196816906355,614.7834955144365,361.7701933376513,318.5702367492902,427.2620781090636
55.74,308.60609235284085,305.7625441506636,316.07196816906355,614.7993142290635,363.650044047058,318.6339522690636,427.6930017850962
55.75,308.6395354684886,305.7625441506636,316.07196816906355,612.2858192649338,359.1036024020546,318.6339522690636,429.2950350378736
55.76,308.6824025864498,305.7625441506636,316.07196816906355,614.7072611155569,358.6193156715998,317.23154471818367,430.2466051227084
55.77,308.7493482557764,305.7625441506636,316.07196816906355,615.8154668090909,356.5340368787059,318.61596919026886,428.8172516478583
55.78,308.7905572576281,305.7625441506636,316.07196816906355,615.3388783284598,355.5808578678564,320.0119861280097,430.6366477308542
55.79,308.82265584402023,305.7625441506636,316.07196816906355,619.4190983052945,352.9399011203707,318.6504391491439,430.8488558490636
55.8,308.8430820308527,305.7625441506636,316.07196816906355,619.841653516463,351.67223548686525,317.7969397660699,431.2673610757667
55.81,308.8839118590576,305.7625441506636,316.07196816906355,621.5756965867706,348.12252043364947,318.405675386579,430.56473591154815
55.82,308.923194248866,305.7641981675985,316.07196816906355,621.1449471256566,346.5002516056568,317.4365505866911,431.1347281837034
55.83,308.9583774641145,305.7817897752228,316.07196816906355,623.4624667028346,342.2803543052774,318.30287628696334,431.3612526690636
55.84,308.9599003074636,305.7830400234636,316.07196816906355,627.4791002838945,342.7003352348222,318.1587370119101,433.7373310044184
55.85,308.9751430880649,305.7830400234636,316.07196816906355,629.1922929028027,338.5944954169876,316.08419600677604,432.9045570479198
55.86,308.98039618026354,305.7830400234636,316.07196816906355,631.1352995946554,337.62299104626766,318.48802370431486,432.89844312906354
55.87,308.98039618026354,305.7830400234636,316.07196816906355,631.2417162158202,336.0211668513928,317.1061140758222,431.8798843335693
55.88,308.9959853411153,305.7830400234636,316.07196816906355,633.223548239518,334.5347918088259,317.09676180906354,433.84408170830994
55.89,309.0008920530636,305.8129947415608,316.07196816906355,633.7937475199885,335.54304732906354,318.6271578872304,434.4333687951192
55.9,309.0008920530636,305.82403176906354,316.07196816906355,635.2499362410957,335.54304732906354,317.7409101985965,433.5425915185965
55.91,309.0008920530636,305.82403176906354,316.07196816906355,636.2854410242211,334.05766633632743,317.13188763586817,434.8426549782369
55.92,309.0008920530636,305.82403176906354,316.07196816906355,636.8055504411556,335.9481339078446,316.638279382464,432.6556162264783
55.93,309.0008920530636,305.82403176906354,316.07196816906355,637.9003005941966,338.0834656717034,319.60993088881577,435.41161220881577
55.94,309.03193510200646,305.82403176906354,316.07196816906355,640.8377608855435,336.61473757561726,317.2454880604495,434.01247170006025
55.95,309.04188379866355,305.82403176906354,316.07196816906355,640.9780899778432,340.701920000442,317.6064121821084,433.41358639601873
55.96,309.04188379866355,305.82403176906354,316.07196816906355,642.9192356444456,342.15777873799703,317.6091586290636,433.4108399490636
55.97,309.04188379866355,305.82403176906354,316.07196816906355,642.4627864084279,343.7592627013833,319.6098653020228,434.4111922607496
55.98,309.04188379866355,305.82403176906354,316.07196816906355,641.4523009372296,346.7907211645656,318.1780871654205,432.4614239804601
55.99,309.04188379866355,305.82403176906354,316.07196816906355,642.4953768957671,348.9097546103738,317.10794845643784,433.3996533016893
56.0,309.04188379866355,305.82403176906354,316.07196816906355,643.9596799329158,351.3502596722882,317.09676180906354,432.5189681929334
56.01,309.0231977114318,305.82403176906354,316.07196816906355,644.0059329690636,353.8981610580873,319.7111210624167,432.38604630906354
56.02,309.0008920530636,305.82403176906354,316.07196816906355,644.0059329690636,357.3834985748383,317.0011239674042,431.4803275412697
56.03,309.0008920530636,305.82403176906354,316.07196816906355,646.5247199675503,360.6850496001916,319.6211339328883,432.3735089836717
56.04,309.0008920530636,305.82403176906354,316.07196816906355,644.0961537515418,362.6279025729984,317.43539052029064,432.38604630906354
56.05,309.0008920530636,305.7960610514534,316.07196816906355,645.0214583753834,366.86413508399926,319.6297954887335,432.38604630906354
56.06,309.0008920530636,305.7420482778636,316.07196816906355,644.5369748845497,370.2555154206604,317.322175418118,431.4514181126853
56.07,308.9952597872181,305.7317388538452,316.07196816906355,643.0329201021054,372.00952352066247,319.6301705632058,431.3612526690636
56.08,308.98039618026354,305.7010565322636,316.07196816906355,645.7853948934959,376.5969815063133,317.8428259260945,430.9072731857181
56.09,308.98039618026354,305.69865851514595,316.07196816906355,648.0393711162321,380.0229650250228,319.529156654111,430.8488558490636
56.1,308.98039618026354,305.66917520212314,316.07196816906355,646.3234894388125,383.6848088991528,319.65874590906355,430.4167618586939
56.11,308.9773197497563,305.59606847343287,316.07196816906355,644.7681150404644,386.3664192103372,319.24418613787435,431.994696064233
56.12,308.9599003074636,305.5780812954636,316.07196816906355,645.8334925581956,390.28983141314086,318.30023846813395,431.11688037766913
56.13,308.9599003074636,305.5780812954636,316.07196816906355,643.5825538238086,396.8170228997582,320.1828479220196,430.8488558490636
56.14,308.9599003074636,305.5780812954636,316.07196816906355,642.0124736367263,400.980165078767,318.0963701205669,431.71124634175817
56.15,308.9599003074636,305.5780812954636,316.07196816906355,645.9719749723563,402.7227282833976,319.635647060418,432.38027262169584
56.16,308.92899868004304,305.56321358933445,316.07196816906355,641.604296280327,405.6345133948879,317.78673692059,433.322051828094
56.17,308.91890856186353,305.5575854226636,316.07196816906355,643.9452918302102,408.329384535774,318.1155153153494,432.9044832627777
56.18,308.88791880219,305.54265622891603,316.07196816906355,640.6193548153993,409.75478640634816,317.2055006126167,433.8144979655104
56.19,308.8779168162636,305.5370895498636,316.07196816906355,640.9395249435828,412.43445780796577,318.61614955394947,434.9361632987124
56.2,308.8779168162636,305.5370895498636,316.07196816906355,641.3710552974503,414.16058742178535,318.6339522690636,435.8021877096544
56.21,308.90895986520644,305.5370895498636,316.07196816906355,639.5384024839275,413.4993844164955,317.7944269720646,436.3925877223567
56.22,308.91890856186353,305.5370895498636,316.07196816906355,640.2627471245521,414.2957495045522,317.19605816401776,438.5507190951182
56.23,308.94997825544107,305.5370895498636,316.07196816906355,640.3640787196754,414.45215760906353,318.62192119173,438.5388191913705
56.24,308.9599003074636,305.5370895498636,316.07196816906355,637.9388492317588,414.45215760906353,318.1521578367412,439.9801893964432
56.25,308.9599003074636,305.5370895498636,316.07196816906355,636.3766784019901,414.4068002425572,318.1215554490636,440.5811283869392
56.26,308.9599003074636,305.5370895498636,316.07196816906355,638.8018771460975,412.4666404274364,317.63916868601734,442.5139424812485
56.27,308.9599003074636,305.5370895498636,316.07196816906355,634.8802234891803,410.82884187662296,317.6091586290636,442.1238465838334
56.28,308.9599003074636,305.5370895498636,316.07196816906355,638.8278638632207,409.34847827354827,319.0834042141075,442.61300108407823
56.29,308.9599003074636,305.5370895498636,316.07196816906355,638.8342831705816,406.7471318498359,317.1171859463088,443.6485632556473
56.3,308.9288224155369,305.5370895498636,316.07196816906355,636.3984491180782,405.7727990486695,318.40123393094325,445.3980725115698
56.31,308.91890856186353,305.5370895498636,316.07196816906355,636.8118713683272,401.8062922237166,317.3765858116401,446.1274857815381
56.32,308.91890856186353,305.5370895498636,316.07196816906355,636.374364417951,400.2681958461389,318.4050072211257,447.0929254234965
56.33,308.91890856186353,305.5370895498636,316.07196816906355,641.38838660749,397.0445557820601,317.12294733615283,446.23821678392727
56.34,308.8879085542536,305.5370895498636,316.07196816906355,637.4716806542666,398.0237317579692,317.57907888614227,448.1500246582039
56.35,308.8779168162636,305.5370895498636,316.07196816906355,635.8628140774978,392.37306881710384,317.6091586290636,447.2567427860251
56.36,308.8779168162636,305.5519511072309,316.07196816906355,638.788382663446,389.93509499548026,317.12641933700513,449.659246450181
56.37,308.8779168162636,305.5575854226636,316.07196816906355,640.8620874369697,387.761212544472,317.09676180906354,447.7702750773782
56.38,308.8779168162636,305.5575854226636,316.07196816906355,637.8849245904221,385.7764373134401,317.09676180906354,448.7447001099722
56.39,308.8779168162636,305.5575854226636,316.07196816906355,639.8856189658576,382.6307041114615,317.09676180906354,448.7827445490636
56.4,308.8779168162636,305.5426459809796,316.07196816906355,638.9140182645353,380.201705432537,318.43330997187525,448.7827445490636
56.41,308.8779168162636,305.5370895498636,316.07196816906355,638.8819647690635,377.64892192983694,318.6339522690636,449.7359092128021
56.42,308.8779168162636,305.5370895498636,316.07196816906355,638.3983933445694,376.59244167048814,319.0903933067323,449.3510971513948
56.43,308.8779168162636,305.5370895498636,316.07196816906355,641.9187849525703,372.39054589518906,318.1373352215323,447.781619542973
56.44,308.8779168162636,305.5370895498636,316.07196816906355,639.4750497411026,369.4580640513453,318.1215554490636,449.6862907543406
56.45,308.8779168162636,305.5370895498636,316.07196816906355,640.4101698384281,368.821884457157,317.6148667296383,446.7674017733378
56.46,308.8469578003992,305.5370895498636,316.07196816906355,639.9237597355511,367.3626541485264,318.57154028680026,447.6955389268003
56.47,308.83692507066354,305.5370895498636,316.07196816906355,642.4245144651485,365.2399498918997,318.1254066235627,446.2323119229737
56.48,308.83692507066354,305.5370895498636,316.07196816906355,640.4437297805507,364.24955652480713,318.61333752020136,446.2207604490636
56.49,308.83692507066354,305.5370895498636,316.07196816906355,641.9395247262566,361.69210611187054,317.1154274004225,445.2084098534404
56.5,308.82137690155747,305.5370895498636,316.07196816906355,640.9634948668223,362.6681359713048,318.43209866579275,444.3057429211065
56.51,308.8164291978636,305.5370895498636,316.07196816906355,641.4256317075422,362.7000787890636,318.15797046626733,444.17117316906354
56.52,308.7853451571752,305.5370895498636,316.07196816906355,642.3612252595293,362.7000787890636,319.0110394360125,445.06065715601255
56.53,308.74435956033693,305.5370895498636,316.07196816906355,641.4089808604795,360.17306269764765,318.6428023869386,444.1888734048137
56.54,308.7344457066636,305.5370895498636,316.07196816906355,638.96577444253,362.6162691155971,317.1895773690384,444.17117316906354
56.55,308.7344457066636,305.5370895498636,316.07196816906355,640.9427796881835,363.1675650525842,317.605977669605,443.6619573085221
56.56,308.6943557794668,305.5370895498636,316.07196816906355,641.4274394435231,361.2289239816379,318.572446204378,444.1404211615144
56.57,308.6424458824262,305.5370895498636,316.07196816906355,641.390604260927,362.2143552979255,318.1278886737587,443.1590439288667
56.58,308.6319663426636,305.5370895498636,316.07196816906355,638.4096660746095,363.7048233662906,318.61282922255583,444.62020289912783
56.59,308.62043946380084,305.5370895498636,316.07196816906355,639.9155798327166,364.2637335200229,318.12739472322426,445.1901275349029
56.6,308.59994359100085,305.5370895498636,316.07196816906355,640.4009139022714,365.7197377782748,317.67804730713164,443.4219342413359
56.61,308.5704520796289,305.5370895498636,316.07196816906355,639.9253727607406,365.2806772407405,319.51190527797525,443.6220661912915
56.62,308.5499828514636,305.5370895498636,316.07196816906355,639.9067584090635,366.6411358887607,318.32144554772015,443.65877634906354
56.63,308.5384764684737,305.5370895498636,316.07196816906355,639.9141492207953,367.341211366403,318.62584820095844,444.6673618528533
56.64,308.50652340277844,305.5370895498636,316.07196816906355,640.4007663319875,369.2876859599335,317.7458927452742,444.2395392023752
56.65,308.4884952330636,305.5261816463594,316.07196816906355,640.3858801795727,370.4414908712731,318.6265963003156,445.697328651148
56.66,308.4884952330636,305.51659367706355,316.07196816906355,638.9316221696834,372.8652508051099,318.1522521177561,445.2266634777561
56.67,308.4678394924557,305.51659367706355,316.07196816906355,639.3716521620012,372.002704543782,319.6488505016757,445.70506584313006
56.68,308.43603809621925,305.51659367706355,316.07196816906355,638.3818572743944,375.4669886999928,318.18335050555555,445.7083636290636
56.69,308.4270076146636,305.4838392227419,316.07196816906355,640.8380826707464,375.5619255828023,319.6463110630358,446.21661618358337
56.7,308.4270076146636,305.45510605866355,316.07196816906355,636.4700821935144,377.9885938809895,317.87926758793293,446.2207604490636
56.71,308.4270076146636,305.45510605866355,316.07196816906355,636.3199806690635,378.5630788484625,319.3411336658056,447.0867479674346
56.72,308.41672893445434,305.45510605866355,316.07196816906355,636.3199806690635,380.8785242433131,318.78052235463093,445.9282187574146
56.73,308.40651174186354,305.4441797088739,316.07196816906355,634.7557172106821,381.6655288662621,320.6474688625229,447.2184995369676
56.74,308.39501560681003,305.4346101858636,316.07196816906355,632.8007470778759,382.15427139946365,317.7961486253798,447.2455540890636
56.75,308.3860158690636,305.4346101858636,316.07196816906355,634.7297366423207,384.23842906811535,319.63562041578336,448.2587839576298
56.76,308.3860158690636,305.4443375270945,316.07196816906355,631.8074699414805,385.2125179683955,317.73202318815044,447.78866807362897
56.77,308.3860158690636,305.45510605866355,316.07196816906355,633.2348701596528,387.7753362504184,318.6259014902277,447.2495794784815
56.78,308.3630215493692,305.45510605866355,316.07196816906355,632.7380481533935,386.2848661324661,317.6478691840209,447.7385966563785
56.79,308.3450241234636,305.45510605866355,316.07196816906355,632.7153510238547,386.25248060385474,318.6229070432116,448.7716993232117
56.8,308.3450241234636,305.45510605866355,316.07196816906355,631.7419651320117,385.2790947120117,316.41092071508086,448.7827445490636
56.81,308.3450241234636,305.45510605866355,316.07196816906355,632.1998388311891,385.73696841118914,318.23788182472725,448.7827445490636
56.82,308.3244708622197,305.45510605866355,316.07196816906355,630.8502983346095,385.7579356890636,317.7598483850637,448.34569260706365
56.83,308.3040323778636,305.45510605866355,316.07196816906355,632.1914252754049,383.686311246629,319.561642612499,448.27034772906353
56.84,308.3040323778636,305.45510605866355,316.07196816906355,630.2456208969148,382.2269600123488,318.332285814844,449.59680782328303
56.85,308.3040323778636,305.45510605866355,316.07196816906355,630.6754726388002,382.13858590800976,318.62678896152,448.79707116415074
56.86,308.3040323778636,305.44819894953,316.07196816906355,630.1905320900029,380.198821663234,316.76773541424336,448.7827445490636
56.87,308.2978959135473,305.4346101858636,316.07196816906355,631.1826307137125,378.0786732419455,319.106802302496,448.2782570863771
56.88,308.2835365050635,305.4346101858636,316.07196816906355,630.2835218648967,378.5282297159407,318.7031381372873,449.15676758302885
56.89,308.2835365050635,305.4346101858636,316.07196816906355,631.6961896497002,375.5344406173775,317.6510378459558,448.3122269459558
56.9,308.2835365050635,305.4346101858636,316.07196816906355,629.2122415357989,375.5099992890636,316.8015679514743,449.4817357950348
56.91,308.2806834795698,305.4346101858636,316.07196816906355,630.210290111382,372.7515417524028,316.58436498906354,449.8075381890636
56.92,308.26304063226354,305.4346101858636,316.07196816906355,626.3416572278111,370.7390520021708,317.3439645804916,449.8075381890636
56.93,308.26304063226354,305.4346101858636,316.07196816906355,631.6546506642965,368.3210842019872,318.6162479341389,448.8004488839882
56.94,308.2467300166893,305.4346101858636,316.07196816906355,628.2410650990437,367.3457737476882,317.1904074518868,450.2262893662404
56.95,308.2425447594636,305.4346101858636,316.07196816906355,632.2119231977921,365.235414155249,317.60322097471345,447.28117591599
56.96,308.2425447594636,305.4346101858636,316.07196816906355,631.7255991775809,363.7764441442029,317.6091586290636,450.6138171307937
56.97,308.2425447594636,305.4346101858636,316.07196816906355,636.2285075887572,361.67528514906354,317.6091586290636,448.8079831668295
56.98,308.20368253504745,305.4346101858636,316.07196816906355,630.8938746097696,361.67528514906354,317.6091586290636,449.2496733248441
56.99,308.18105714106355,305.4346101858636,316.07196816906355,633.2166431799717,355.53617481556506,317.6091586290636,447.7736896897867
57.0,308.18105714106355,305.4346101858636,316.07196816906355,631.7589849047848,356.02206227368555,317.6091586290636,449.092162542376
57.01,308.18105714106355,305.4346101858636,316.07196816906355,633.1882010572872,353.5726005153575,317.17450060500664,448.86048334500674
57.02,308.18105714106355,305.4346101858636,316.07196816906355,629.1302764908844,352.562420432664,317.53431999912164,448.3451863590055
57.03,308.15806282136924,305.4346101858636,316.07196816906355,632.2208061090636,351.3926881785715,317.6091586290636,447.7646489602946
57.04,308.1400653954636,305.4346101858636,316.07196816906355,632.2208061090636,349.4524812229432,316.27723228556823,449.5338527003906
57.05,308.1400653954636,305.4346101858636,316.07196816906355,634.7647312955394,347.337202621032,317.0840379712293,447.2773636836491
57.06,308.1400653954636,305.4441182212555,316.07196816906355,633.7915442136626,347.82379718676407,318.059602574351,448.689814212201
57.07,308.1400653954636,305.44582347787247,316.07196816906355,637.3447743090635,346.30338054906355,317.1103300768572,447.26590649075393
