Time[s],Signal A,Signal B,Signal C,Sensor A,Sensor B,Sensor C,Sensor D
63.2,328.1645331210636,326.13544171386354,316.07196816906355,612.3451097257697,348.9665199796807,410.9769327559521,648.1155173828587
63.21,328.14925754706576,326.13544171386354,316.07196816906355,610.2991174218588,347.23162428106457,412.22171679706366,643.7691175059705
63.22,328.1286386990289,326.13544171386354,316.07196816906355,610.5032378686612,349.2994549374439,415.242781803149,641.611213637397
63.23,328.07783557911955,326.13544171386354,316.07196816906355,610.7001396690636,348.6618529296833,413.0831562812604,638.4256303099334
63.24,328.0156162580606,326.15034836215096,316.07196816906355,609.8586180740539,346.6699225894569,413.8930670916506,638.1551483261792
63.25,327.985306961364,326.1559375866635,316.07196816906355,611.2740405041618,347.90207502416183,409.63171278935874,631.8666968651106
63.26,327.94905386155534,326.1410022441542,316.07196816906355,608.3905478954847,347.9361699085646,412.3969011706471,628.6406423872162
63.27,327.9238029462657,326.13544171386354,316.07196816906355,608.447485430123,348.662297690123,414.5742310274604,626.8737956724921
63.28,327.8878449870254,326.13544171386354,316.07196816906355,608.2305181702495,348.4453304302495,411.54497587060416,624.6571178390774
63.29,327.84711353901,326.13544171386354,316.07196816906355,609.7826357744098,349.99744803440973,412.2939114594144,621.2346350154422
63.3,327.8056257932882,326.13544171386354,316.07196816906355,607.2481735324056,349.14273939484053,407.4999637040654,619.0788422217671
63.31,327.79560741066354,326.1501618497085,316.07196816906355,607.8336360893503,350.919815599679,409.0480313237604,616.0563466037604
63.32,327.7493892174996,326.1559375866635,316.07196816906355,609.3999901267574,350.1655141913697,407.2142143446624,613.5505150464705
63.33,327.71886266455124,326.1559375866635,316.07196816906355,605.5613509034418,349.4787589814601,410.7535789821141,611.5013315351646
63.34,327.6671700237624,326.1559375866635,316.07196816906355,607.4934312455049,351.4792279022949,409.7295108960113,609.2865844129678
63.35,327.6062890831973,326.1559375866635,316.07196816906355,607.7380289915001,351.1394924139367,408.8664706841488,605.9365340038078
63.36,327.55964867505355,326.14102069043975,316.07196816906355,608.0429563390821,350.497754339045,409.3267669954912,604.5556450697804
63.37,327.4885279964376,326.13544171386354,316.07196816906355,609.371789855372,352.8698236816802,406.8214539837832,601.6026571052004
63.38,327.4215126411434,326.13544171386354,316.07196816906355,605.4745836755303,351.79663108765027,407.55635809807455,598.2915140113765
63.39,327.39094919562405,326.13544171386354,316.07196816906355,606.6059906970742,351.4273487490636,409.3930219539045,597.3218768146687
63.4,327.3240342701066,326.13544171386354,316.07196816906355,607.1133619290636,350.6095121846616,405.7414116690636,596.6975479341334
63.41,327.2579863200086,326.13544171386354,316.07196816906355,607.9293292698661,352.03448979066883,405.51709049002943,595.2160734547529
63.42,327.2422188450635,326.15027867618346,316.07196816906355,606.0363038134236,350.7706609845516,404.19305300797487,594.3034414290636
63.43,327.196443362752,326.1559375866635,316.07196816906355,605.5761714690635,350.8137392100026,407.9137323345645,594.4147729605259
63.44,327.1652322476522,326.14101864085245,316.07196816906355,603.8927593533339,351.3358039332023,404.7166180290636,595.3282350690636
63.45,327.1449597798657,326.13544171386354,316.07196816906355,604.3264868647655,352.62720173782293,404.6159914919647,595.2276085319647
63.46,327.07776201130366,326.15035246132555,316.07196816906355,604.9685590223838,352.54735801574327,403.6951119270607,594.3067289670606
63.47,327.0577559898636,326.17087087958566,316.07196816906355,605.485831810523,353.7183159230292,404.6057927456594,594.7050129656593
63.48,327.0577559898636,326.1764334594636,316.07196816906355,605.5761714690635,352.2996592441934,403.5275786627935,593.8457931844869
63.49,327.0272745278354,326.1764334594636,316.07196816906355,603.1094255412033,351.9397455690636,402.3210829616596,594.4144081339899
63.5,326.9859343523978,326.1764334594636,316.07196816906355,603.7272777259338,352.75673770350625,404.0235787845535,595.272943353011
63.51,326.9605317676495,326.1764334594636,316.07196816906355,604.4468140347998,352.9645392090636,406.2633329211537,594.927587896331
63.52,326.9241966843496,326.1764334594636,316.07196816906355,603.291375602398,352.5445377836459,402.5397862219593,595.7305874984131
63.53,326.8837685752517,326.1764334594636,316.07196816906355,601.3736751646915,351.6318873116712,405.51923640791154,594.8713820643516
63.54,326.8577982548268,326.1764334594636,316.07196816906355,602.2251454563583,353.10807590545653,403.858861653209,595.4395932451605
63.55,326.8069828373937,326.1764334594636,316.07196816906355,600.5037073478227,351.47885282782266,404.9261924276181,596.4034997958336
63.56,326.79130964346353,326.1764334594636,316.07196816906355,601.6050633206671,351.3312661469645,402.1599772031025,596.8645360081839
63.57,326.76079333845166,326.1764334594636,316.07196816906355,600.3484900535209,350.60689691129227,402.322798466213,596.8654255290636
63.58,326.7503178978636,326.1764334594636,316.07196816906355,600.7785180599124,352.0799762811739,403.8016064325422,596.8654255290636
63.59,326.7198569317082,326.19110030603923,316.07196816906355,598.5031441459729,351.6316577578958,404.60476795201936,597.1450527712612
63.6,326.6631632979561,326.19692933226355,316.07196816906355,597.0739730843909,350.61110266439084,403.6918243890636,599.2074171783647
63.61,326.6322883151702,326.19692933226355,316.07196816906355,597.2850457312471,351.2417955134306,403.5247686786326,597.6005632963048
63.62,326.62734266106355,326.19692933226355,316.07196816906355,596.9426519281867,350.5570079073098,402.5442666197534,599.5387329621767
63.63,326.62734266106355,326.19692933226355,316.07196816906355,597.692671748668,351.22980132866803,405.5750651158315,600.6185498222957
63.64,326.5809133604097,326.19692933226355,316.07196816906355,596.6301923473507,351.8473583728303,404.14932506335606,601.7149089013515
63.65,326.5505774190785,326.19692933226355,316.07196816906355,593.953572781193,351.5398362477518,403.39098391851786,599.4274096290635
63.66,326.52986633961405,326.19692933226355,316.07196816906355,597.0323254708612,349.3419715759802,400.6226391728184,599.4274096290635
63.67,326.49433674411523,326.19692933226355,316.07196816906355,595.8372890122099,348.8653646490636,402.26644096477486,599.5951212074241
63.68,326.4838715514636,326.19692933226355,316.07196816906355,594.9094080571574,350.12184568478204,403.17942756906353,600.6364468184245
63.69,326.40778062369355,326.19692933226355,316.07196816906355,594.4053120656414,350.8130812924857,403.4568289594752,598.0011797252281
63.7,326.36597109276886,326.19692933226355,316.07196816906355,592.6710599374312,348.87447506452315,405.6315291958082,598.9150128090636
63.71,326.3456535340622,326.19692933226355,316.07196816906355,592.6615662491504,349.9838182789977,404.8279311142404,598.9150128090636
63.72,326.34040044186355,326.1821087666419,316.07196816906355,595.7080830300787,350.8228168320657,405.4105795878496,598.7495967684566
63.73,326.34040044186355,326.1764334594636,316.07196816906355,593.8884799387675,350.093436355494,403.0560998032514,597.4334030569225
63.74,326.2939240007023,326.1764334594636,316.07196816906355,592.019252240233,350.30995680534045,406.47409198115616,597.7250060375974
63.75,326.27891282346354,326.1764334594636,316.07196816906355,592.1408767990155,350.40255510906354,408.0033136458115,596.4530567666767
63.76,326.27891282346354,326.1764334594636,316.07196816906355,593.5009603725633,349.9868537177594,405.2321117754436,597.3767893570745
63.77,326.23314758908845,326.1764334594636,316.07196816906355,593.7910446090635,349.0697720380852,404.5399641014004,595.9525455033133
63.78,326.21742520506353,326.1764334594636,316.07196816906355,591.7536913155378,348.0504241514882,407.38899699913895,596.6446337393256
63.79,326.21742520506353,326.1764334594636,316.07196816906355,591.63640368344,349.4699437065688,408.0275910071431,595.0364824685174
63.8,326.2020287054162,326.1764334594636,316.07196816906355,593.7783966059587,349.48277002376705,405.9058090647923,596.7558279484401
63.81,326.1817193450587,326.1764334594636,316.07196816906355,590.6407346786887,348.15685921893856,407.5008019852629,595.673981996914
63.82,326.1764334594636,326.1764334594636,316.07196816906355,593.468253058749,347.8405710090636,408.9417171819595,594.3586511616248
63.83,326.16120707556047,326.1764334594636,316.07196816906355,593.0717501514966,346.6088797314967,406.18566586076537,594.9824328023565
63.84,326.1404468060013,326.1764334594636,316.07196816906355,592.3342574084706,345.43939137829057,409.56667528578976,596.1339011841969
63.85,326.13544171386354,326.1764334594636,316.07196816906355,589.8405799037512,346.08301097430524,407.2786021290636,594.3034414290636
63.86,326.13544171386354,326.1764334594636,316.07196816906355,591.6799348676798,345.05315075454905,407.2786021290636,594.3034414290636
63.87,326.13544171386354,326.1764334594636,316.07196816906355,594.7140188521678,344.7661900890636,409.04941069599977,594.0140663497622
63.88,326.12011285059646,326.1764334594636,316.07196816906355,595.3282350690636,343.0900458098287,407.04181740977975,595.7303866388596
63.89,326.0845914534468,326.1764334594636,316.07196816906355,595.7378532853206,342.71660280906355,409.2189730516742,594.7612290455752
63.9,326.0585596454035,326.1764334594636,316.07196816906355,594.6181186633366,343.9391160347906,408.3033957690636,594.1397736864064
63.91,326.05345822266355,326.1764334594636,316.07196816906355,595.5258009357447,343.8463394169741,408.1383896459126,592.9312570922145
63.92,326.00705761623163,326.1764334594636,316.07196816906355,595.4081771713326,342.4440302462836,406.6006847395053,594.3586142690539
63.93,325.99197060426354,326.1764334594636,316.07196816906355,595.3282350690636,343.4420337309468,405.67119485843807,594.5947492691699
63.94,325.99197060426354,326.1615657533344,316.07196816906355,597.0053447039073,344.1606743701713,409.0502735722447,592.8774164839562
63.95,325.9767380715986,326.1559375866635,316.07196816906355,596.1476088239255,343.4336509189716,406.9152840894616,593.9401233894615
63.96,325.9714747314636,326.1709077721567,316.07196816906355,595.4095647419211,342.36686738436623,408.3019036695237,595.3267429695237
63.97,325.9714747314636,326.1764334594636,316.07196816906355,598.2966789713222,342.20420598906355,407.1680678870532,594.1376421156352
63.98,325.9714747314636,326.1764334594636,316.07196816906355,596.8051020762385,341.7822246623335,406.9116829646107,592.821073329629
63.99,325.9714747314636,326.1764334594636,316.07196816906355,600.1464724832678,343.37778326889327,411.6789614902723,593.3899711221767
64.0,325.9714747314636,326.1764334594636,316.07196816906355,600.5429569442346,342.8981122089931,406.12566009396886,594.1936573359976
64.01,325.9714747314636,326.1764334594636,316.07196816906355,600.4522032690636,342.71660280906355,409.1623101617313,593.1127685417314
64.02,325.9714747314636,326.1764334594636,316.07196816906355,599.149663907989,342.71660280906355,407.6261444953713,591.7414573290636
64.03,325.9714747314636,326.1764334594636,316.07196816906355,598.4907810354999,342.71660280906355,406.25380848906354,591.7961300697576
64.04,325.9714747314636,326.1764334594636,316.07196816906355,600.5131784906437,341.8723778084316,406.36376269787377,592.3638083578737
64.05,325.9714747314636,326.1764334594636,316.07196816906355,600.5545678561758,342.1018414019512,407.6274295865959,592.9298203315311
64.06,325.9714747314636,326.1764334594636,316.07196816906355,599.1603381585431,343.496071099584,410.8635352405116,589.6937146776155
64.07,325.9714747314636,326.1764334594636,316.07196816906355,600.1843201619803,343.3182939980913,409.6200301418628,590.1491268224697
64.08,325.9714747314636,326.1764334594636,316.07196816906355,599.1523181235165,341.9291144835165,408.0108991683348,589.7468440790877
64.09,325.9714747314636,326.1764334594636,316.07196816906355,600.6104621508888,340.8440834733573,409.5644945249239,590.0938289576552
64.1,325.9714747314636,326.1764334594636,316.07196816906355,599.7350526797916,343.5359622168146,407.6611514461137,589.3434238147653
64.11,325.9714747314636,326.1764334594636,316.07196816906355,599.4274096290635,342.997597125977,410.4785879063438,590.5508951194445
64.12,325.9714747314636,326.1764334594636,316.07196816906355,602.3810575607479,342.71660280906355,407.8241305274448,589.0703675493874
64.13,325.9714747314636,326.1764334594636,316.07196816906355,601.3280042113312,342.29505599483684,412.2448340919948,588.2072576515575
64.14,325.9714747314636,326.1764334594636,316.07196816906355,602.2299414905934,341.7824255218869,410.86537986906353,588.7017185332701
64.15,325.9562749921951,326.1764334594636,316.07196816906355,602.0922338204248,342.510922626341,410.86537986906353,589.1794732290635
64.16,325.9509788586636,326.1764334594636,316.07196816906355,600.6962455769058,342.2855541082068,410.86537986906353,589.1794732290635
64.17,325.9509788586636,326.1764334594636,316.07196816906355,600.864729849671,343.02925710069115,410.2981319942762,586.5077849699014
64.18,325.9509788586636,326.1912068845778,316.07196816906355,602.6890961818209,342.7978750934774,410.3824376678644,585.809435244749
64.19,325.9509788586636,326.18229117990984,316.07196816906355,603.4268061810986,342.30398399702847,414.5245818251896,587.6972793445478
64.2,325.9509788586636,326.1764334594636,316.07196816906355,603.107658796968,342.20420598906355,410.9199726758536,587.9908991191061
64.21,325.9509788586636,326.1764334594636,316.07196816906355,600.485937426105,343.4683299357492,411.1028593984353,586.6724734070242
64.22,325.9509788586636,326.1764334594636,316.07196816906355,602.4642236638084,344.58286885397854,409.248163273716,587.1839315160498
64.23,325.8902311412716,326.1764334594636,316.07196816906355,602.1948259117253,343.5371489278497,412.5863855146831,587.6970456915979
64.24,325.8689953674636,326.1764334594636,316.07196816906355,604.0869679960502,344.0680289259408,409.8405862290636,587.9900341932739
64.25,325.8689953674636,326.1764334594636,316.07196816906355,604.1522657972038,345.8502413965029,410.0369120954402,586.5193261958751
64.26,325.8536808513074,326.19116999200673,316.07196816906355,605.7012167890164,345.05670473889256,411.8863817725956,585.5945913572975
64.27,325.8181205119994,326.19692933226355,316.07196816906355,604.4490952254425,344.3563218231583,412.1114244063523,586.5068647052127
64.28,325.7767700886254,326.2265007775394,316.07196816906355,604.4578674590009,345.09156616893813,413.72229342989374,585.5383281368743
64.29,325.7209270335945,326.2379210778636,316.07196816906355,602.501786449889,344.8686694530636,411.6706155708681,585.3547466042047
64.3,325.68968927386004,326.2379210778636,316.07196816906355,604.0249720800047,345.9875370996283,410.54033377274106,587.5346302467689
64.31,325.654157628774,326.1940476125479,316.07196816906355,600.4827400699482,345.489653407158,416.00754840411,586.6174891290635
64.32,325.59740660657803,326.1764334594636,316.07196816906355,603.2031716138033,346.9567028912618,411.8901735090636,586.4528703779084
64.33,325.5668595577569,326.1764334594636,316.07196816906355,603.2194391880446,346.9184043033477,411.8901735090636,585.2990347227596
64.34,325.5307478794706,326.1764334594636,316.07196816906355,603.8527514096281,349.7507515110398,411.94428056366826,587.0216697902669
64.35,325.4596784405366,326.1764334594636,316.07196816906355,604.0389810090636,348.40798490042056,412.3530441020297,586.2536689405781
64.36,325.3921814322316,326.0871636854832,316.07196816906355,601.5437663138841,350.335785704243,411.8815570441384,587.6361278584617
64.37,325.34661090864813,326.05345822266355,316.07196816906355,600.1446504001758,351.73490161795127,408.63267426311927,585.1351784180729
64.38,325.2900463988947,326.05345822266355,316.07196816906355,598.2665069969732,350.6847709799959,411.7042656948311,585.5926954890635
64.39,325.21390628102995,325.980386336957,316.07196816906355,597.4812076306413,350.40255510906354,414.2338745141562,585.9746914175481
64.4,325.16189800379993,325.9509788586636,316.07196816906355,594.9342961954984,351.21706314372284,412.4025703290636,589.0154140152358
64.41,325.12123009299023,325.9363304583734,316.07196816906355,594.3034414290636,352.64825714795035,412.2379741233686,587.9714751804535
64.42,325.0645405584127,325.9304829858636,316.07196816906355,596.3952399590951,355.47469539551423,410.75679068538193,590.6080745053819
64.43,325.0187445802284,325.8718914342901,316.07196816906355,594.8165761004843,357.26822978621107,409.6211266710576,589.9661950089679
64.44,324.9619484671123,325.8040214011003,316.07196816906355,595.9803686506393,357.57611058906355,407.7909989490636,592.2538541490635
64.45,324.88591287819884,325.7870118762636,316.07196816906355,591.8497841655734,357.57611058906355,408.0376052905932,592.549781758899
64.46,324.8646976002635,325.7277931509825,316.07196816906355,592.3900840668033,358.83117535997155,410.3493880729744,595.3239227374264
64.47,324.80384740350763,325.70502838506354,316.07196816906355,591.1280363520323,360.3419630366306,409.2187209524388,596.1690352093506
64.48,324.7519436552289,325.70502838506354,316.07196816906355,589.4230010904987,361.5129332414402,408.03137454526194,598.8606085643032
64.49,324.7417223634636,325.6466048996472,316.07196816906355,586.2987660094999,360.85222623627214,405.8968134262204,598.6098190151351
64.5,324.7109478104544,325.62304489386355,316.07196816906355,584.7552812669629,362.3253199532647,407.3553284288904,600.4777780191433
64.51,324.7007306178636,325.57910994092947,316.07196816906355,587.4359057266659,363.9292224296414,408.4882808392432,601.3466964473248
64.52,324.638624024105,325.56155727546354,316.07196816906355,585.2214537450371,362.56113931693966,405.9039008990346,604.5513778290635
64.53,324.61874712666355,325.4720395014223,316.07196816906355,584.5679018490636,363.4496374524069,407.2786021290636,604.7151091089263
64.54,324.61874712666355,325.4087851387869,316.07196816906355,582.4596533315226,363.7248724290636,407.2240523636064,606.3067653013051
64.55,324.61874712666355,325.3975902930636,316.07196816906355,580.8108075052701,364.919982672857,406.8646285398365,608.3349999810221
64.56,324.60328299063593,325.3827143885853,316.07196816906355,581.2988039887017,365.67710021408897,407.79059722995663,610.1875419895101
64.57,324.5669438081616,325.3770944202636,316.07196816906355,578.9680317801713,368.2999488579559,406.82034925623935,609.7836318738277
64.58,324.55725950826354,325.3770944202636,316.07196816906355,575.8923063309156,365.9008680045576,407.3327973159213,610.8085320923664
64.59,324.55725950826354,325.3770944202636,316.07196816906355,575.3447590890636,367.3685241664963,407.900442810641,611.9438210322185
64.6,324.55725950826354,325.3770944202636,316.07196816906355,574.934911319031,367.4141992190311,408.7075210914103,613.8827920867168
64.61,324.54177282677585,325.3770944202636,316.07196816906355,575.2504268345016,367.7297147345016,407.8456347971865,614.9085879748967
64.62,324.5367636354636,325.3770944202636,316.07196816906355,574.4777939175599,367.8240469890636,408.5761589434605,615.7150021893874
64.63,324.5367636354636,325.3770944202636,316.07196816906355,575.1674533926454,368.6715349326453,410.7561532637378,614.8539275317265
64.64,324.5367636354636,325.3770944202636,316.07196816906355,573.6579487576236,366.7403277147636,410.3819888082501,615.4741326426545
64.65,324.5367636354636,325.3770944202636,316.07196816906355,572.8856724688687,366.2868565290636,414.9645544290636,616.7496686913152
64.66,324.5367636354636,325.3770944202636,316.07196816906355,571.0595455412451,367.1484702281791,414.9645544290636,615.8242656872842
64.67,324.5367636354636,325.3770944202636,316.07196816906355,570.7331877090636,366.486621602896,414.3433286236701,615.2028820636701
64.68,324.5367636354636,325.3770944202636,316.07196816906355,572.4553083301635,363.7036735478265,413.5355329873528,614.3410019182082
