Time[s],Signal A,Signal B,Signal C,Sensor A,Sensor B,Sensor C,Sensor D
36.0,323.50059478605954,324.4183917716945,316.07196816906355,620.902491198369,316.07196816906355,384.44968412823954,600.2581483453931
36.01,323.5470220371261,324.3608639559194,316.07196816906355,621.3257166245781,316.07196816906355,384.9603674932735,602.1030064511685
36.02,323.61285478055976,324.39743884093104,316.07196816906355,621.6514513822266,316.07196816906355,385.8761251395648,603.9207915585624
36.03,323.7003434631938,324.4094699182646,316.07196816906355,621.1296879483571,316.07196816906355,383.8411637143949,607.360128138401
36.04,323.79281469250554,324.3975146756604,316.07196816906355,621.9936607224319,316.07196816906355,384.7650623213624,609.9727042508205
36.05,323.8543228067783,324.4095375546448,316.07196816906355,623.5254033794416,316.07196816906355,385.272165057418,610.5204646497496
36.06,323.9195878145354,324.3932925258636,316.07196816906355,623.7290216773605,316.07196816906355,385.5752354789244,611.8229322752695
36.07,323.9931597995383,324.401933585836,316.07196816906355,622.8965941011122,316.07196816906355,385.9808078098908,615.0659183936841
36.08,324.05289297122664,324.4259014594884,316.07196816906355,622.4852665290636,316.07196816906355,385.4422664545471,617.4802379285093
36.09,324.1562413602333,324.4010461145438,316.07196816906355,622.4852665290636,316.07196816906355,387.101999688431,620.0395657633943
36.1,324.20195330533915,324.4184778543602,316.07196816906355,623.2001400268675,316.07196816906355,387.9834533924169,622.1334056823569
36.11,324.2692433053288,324.356586467266,316.07196816906355,622.9173236268621,316.07196816906355,387.5231550314873,623.9071082665324
36.12,324.3365579003659,324.37697371194025,316.07196816906355,623.1269677113842,316.07196816906355,388.8032883044169,625.6505159011223
36.13,324.3766580754991,324.3932925258636,316.07196816906355,623.5100601690635,316.07196816906355,388.73313503099706,626.6340329028903
36.14,324.4688362138298,324.3974142458837,316.07196816906355,623.5100601690635,316.07196816906355,390.477413740181,628.283456712756
36.15,324.52856733593086,324.4209455574453,316.07196816906355,622.8174226436604,316.07196816906355,390.7577234949429,629.4787001797225
36.16,324.5777553810636,324.44997591167925,316.07196816906355,622.4852665290636,316.07196816906355,390.9776790530707,631.6198179284728
36.17,324.61194454648125,324.4181068790625,316.07196816906355,622.179427115142,316.07196816906355,392.7725969151816,632.0910672342395
36.18,324.7307550219283,324.43008261753954,316.07196816906355,623.2917258344742,316.07196816906355,394.70553808390224,633.0884865865279
36.19,324.7622182362636,324.41775230046306,316.07196816906355,623.6893396180324,316.07196816906355,395.49347526906354,633.9613135776523
36.2,324.8007279316675,324.4342842714636,316.07196816906355,623.5100601690635,316.4287377773059,397.1730526069924,634.4298287339875
36.21,324.9407618833989,324.4342842714636,316.07196816906355,622.9179200567606,316.2882959577057,397.48709446920856,634.7827902090636
36.22,325.00192156783413,324.4342842714636,316.07196816906355,624.7267566660898,316.71239450809605,399.4380474109458,635.3846351171372
36.23,325.0686110387508,324.4342842714636,316.07196816906355,625.4104313463176,316.43514888631773,399.7247764730688,636.0885966122626
36.24,325.1455299997819,324.4342842714636,316.07196816906355,624.6989540146367,316.07196816906355,400.9489314182071,634.831808138452
36.25,325.21540247974434,324.4342842714636,316.07196816906355,623.1490827581355,316.07196816906355,401.669595000077,634.4229544182504
36.26,325.3055822704771,324.4342842714636,316.07196816906355,623.0717354333627,316.36520262121314,401.1298402890636,635.6241396387417
36.27,325.3701750136063,324.4342842714636,316.07196816906355,623.5100601690635,316.2782140378754,403.4410081952609,635.4532921918427
36.28,325.422949836479,324.4342842714636,316.07196816906355,623.5100601690635,316.40224071295,404.91310581283534,635.0986992452918
36.29,325.453232488541,324.4342842714636,316.07196816906355,622.844013989031,316.2513418990473,404.4076324986672,635.6041725594599
36.3,325.5096883701686,324.4342842714636,316.07196816906355,622.8413720710272,316.07196816906355,405.8804987114716,636.1428389396277
36.31,325.550639124023,324.4342842714636,316.07196816906355,623.8850813520343,316.07196816906355,404.778548358316,635.7520789759338
36.32,325.59562756481904,324.4273935590282,316.07196816906355,623.8943639328254,316.07196816906355,403.4806144198596,635.8975607306555
36.33,325.65790837349635,324.3932925258636,316.07196816906355,623.5100601690635,316.07196816906355,404.81627511137896,636.3199806690635
36.34,325.71860075203176,324.3932925258636,316.07196816906355,624.5557329546848,316.07196816906355,404.5505317734161,636.9154206168873
36.35,325.7760978239976,324.3932925258636,316.07196816906355,623.6617603715928,316.07196816906355,405.0217482857863,638.0097362574248
36.36,325.8296084487038,324.3932925258636,316.07196816906355,624.1700949096039,316.07196816906355,405.1806753330648,638.6499350922693
36.37,325.9326596475549,324.3853893173119,316.07196816906355,625.9650804080949,316.68385400522203,404.1392021517801,638.8819647690635
36.38,326.04130621968045,324.35230078026353,316.07196816906355,625.5939288459089,316.4364196304313,404.0075633095476,639.5134405604442
36.39,326.1594116371032,324.35230078026353,316.07196816906355,626.0471643290716,316.07196816906355,402.9674223599949,640.8343565210714
36.4,326.269531862483,324.3483758206224,316.07196816906355,627.6530303100626,316.07196816906355,403.1603561594232,641.7791896125168
36.41,326.4154870718664,324.33180490746355,316.07196816906355,627.8255973606894,316.07196816906355,402.8397884113075,641.672334379674
36.42,326.5675910430897,324.33180490746355,316.07196816906355,627.6092347290636,316.07196816906355,400.6492120719036,642.0461176119276
36.43,326.7385266222417,324.33180490746355,316.07196816906355,630.5817778058822,316.07196816906355,401.5564741789193,644.4325668589192
36.44,326.8611390820932,324.33180490746355,316.07196816906355,632.5684468555608,316.07196816906355,401.1026566129689,645.4621565331545
36.45,326.97858248282444,324.3277877163948,316.07196816906355,631.0034619424567,316.07196816906355,398.26471608158977,645.6946924580068
36.46,327.0819083263711,324.3113090346636,316.07196816906355,632.8091688320094,316.07196816906355,399.2245767469721,645.7752678827454
36.47,327.2046478606339,324.3113090346636,316.07196816906355,636.3129177912966,316.07196816906355,399.1744499908651,646.4089203358175
36.48,327.3051596208451,324.3151294653535,316.07196816906355,635.3628357068272,316.07196816906355,399.0032274694939,646.4484671223852
36.49,327.39907580918924,324.327920939568,316.07196816906355,633.9371386956847,316.07196816906355,400.5206004700836,646.9834708900836
36.5,327.475252819625,324.3113090346636,316.07196816906355,634.8252248641087,316.07196816906355,399.4553971672711,646.5880440161532
36.51,327.5879370786921,324.3045453966396,316.07196816906355,637.9573897982938,316.6635692399119,401.1228061055186,646.3394044840418
36.52,327.68536421004694,324.27031728906354,316.07196816906355,639.9067584090635,316.4561571559377,401.9747150088633,645.664381111723
36.53,327.8146685723676,324.27031728906354,316.07196816906355,639.2452746103163,316.07196816906355,401.4106337464236,645.3115200664236
36.54,327.9000789734997,324.26247761771754,316.07196816906355,638.534051427458,316.41988151066903,402.8303459627085,645.8401496176812
36.55,328.00342531291915,324.2293255434635,316.07196816906355,640.443131301065,316.2387717802591,401.702095305576,645.0606546825261
36.56,328.0982084766828,324.2293255434635,316.07196816906355,642.0292351615022,316.07196816906355,401.456577294892,644.5183297890635
36.57,328.19110397056147,324.21772282987143,316.07196816906355,641.5522695568117,316.07196816906355,403.5958053241701,645.3830322162099
36.58,328.2962559963746,324.1678379250636,316.07196816906355,642.581172619308,316.07196816906355,403.454514975436,646.0555202490635
36.59,328.3597358136108,324.16394780840614,316.07196816906355,643.8266576192692,316.40508963926925,405.13967538911567,645.4373585766538
36.6,328.4813542236314,324.1473420522636,316.07196816906355,645.783997074971,316.2287513480471,404.4228957751413,644.6959675186212
36.61,328.5391710312129,324.1397380834548,316.07196816906355,645.0913329049332,316.66260183471576,403.46284654772927,644.2349108103979
36.62,328.6664258062536,324.1063503066636,316.07196816906355,645.9253099691651,316.7768663255757,404.2933106193633,644.0059329690636
36.63,328.80115747569164,324.1025626693701,316.07196816906355,646.7498958244802,316.91478305364694,403.594581720564,644.0059329690636
36.64,328.91248695756667,324.0820422015228,316.07196816906355,645.8726089314345,316.4014536714345,403.5565229343616,645.191922549461
36.65,329.0428161135273,324.0539485086758,316.07196816906355,645.1974523359424,316.7633124048931,403.87237663173335,646.0555202490635
36.66,329.1465436761809,324.0038709426636,316.07196816906355,647.3741468206989,316.51090778094834,401.73045544476935,646.8961072322735
36.67,329.323006992227,323.999986974768,316.07196816906355,647.293854239005,316.07196816906355,401.259575064713,648.4586059960069
36.68,329.45876960406696,323.9833750698636,316.07196816906355,647.7052596953702,316.7318635376688,400.57678580619023,649.7610408281304
36.69,329.5689902592235,323.97560098531056,316.07196816906355,647.9507490118322,316.4300064718322,400.83043248002656,650.4641394470107
36.7,329.70471392890505,323.9423833242636,316.07196816906355,646.5247261163121,317.139952761815,401.3069697209757,651.0023590171514
36.71,329.8103168639198,323.938997406077,316.07196816906355,648.1270975509906,316.721338906986,400.5617213396822,652.3157242982389
36.72,329.9344706134058,323.9218874514636,316.07196816906355,647.7183442605657,316.39262814860683,399.80349907090624,653.8321688357909
36.73,330.0513995677298,323.91820434312143,316.07196816906355,646.8990852825913,317.24670141611927,399.8738511542923,654.8162720195211
36.74,330.1590213462153,323.89798106542963,316.07196816906355,646.3838579825577,317.6091586290636,400.40255039151737,655.873668444384
36.75,330.26420001666304,323.8808957058636,316.07196816906355,646.7475142040608,316.57116769656767,401.2818561280338,656.9678693080339
36.76,330.31007592875136,323.8751261176704,316.07196816906355,647.0803138890635,316.3651411335948,399.95950340672346,657.3282502890636
36.77,330.3829572028408,323.83990396026354,316.07196816906355,646.4698115243191,316.8896161714358,399.1441365949939,657.3282502890636
36.78,330.40823476276506,323.83990396026354,316.07196816906355,645.0671293287436,317.42622476597444,401.1679216207259,657.6433046473961
36.79,330.43957500186355,323.83990396026354,316.07196816906355,641.1915770385153,316.61113259894034,399.0668056669195,658.4582123515748
36.8,330.43957500186355,323.83990396026354,316.07196816906355,642.2403201058821,317.1392026128705,400.3777852284132,659.8695765988684
36.81,330.4444366228917,323.83990396026354,316.07196816906355,639.3504450824149,316.7213532540969,400.734829481351,659.5507489503534
36.82,330.4600708746636,323.83990396026354,316.07196816906355,640.4709585475655,317.34919102805566,400.4935910089077,660.3670093821371
36.83,330.4600708746636,323.83990396026354,316.07196816906355,639.3462557260148,317.1302233709968,401.6902138481138,660.5868645104881
36.84,330.46963424891203,323.83990396026354,316.07196816906355,638.7360689977113,316.9321881488287,401.8581898232335,660.1866784948936
36.85,330.50106262026355,323.83990396026354,316.07196816906355,638.3567928715473,317.09676180906354,401.9741206285521,659.4069786010107
36.86,330.5090334651955,323.83990396026354,316.07196816906355,636.6840447584354,317.3900434017206,404.1182287251439,659.1459534129662
36.87,330.5420543658636,323.83990396026354,316.07196816906355,635.5019002037752,317.30347498377523,404.876123059955,657.6472583012592
36.88,330.5420543658636,323.83990396026354,316.07196816906355,635.6253632423478,317.09676180906354,405.1510464993451,656.934674192447
36.89,330.5420543658636,323.83990396026354,316.07196816906355,632.809056104709,316.43042253805004,407.2873764122092,656.7098652116401
36.9,330.5420543658636,323.83990396026354,316.07196816906355,632.9735928723729,316.4274834298906,407.29931730770255,657.9769200681362
36.91,330.5420543658636,323.83990396026354,316.07196816906355,632.2793546193041,316.2886361891942,408.46936109906153,656.594567728791
36.92,330.5515705996046,323.83990396026354,316.07196816906355,630.5569265601122,317.35013998696627,409.8405862290636,655.0668914529449
36.93,330.5830461114636,323.83990396026354,316.07196816906355,630.5016122985995,317.4607685099916,409.8405862290636,654.1564647831688
36.94,330.59261153529934,323.83990396026354,316.07196816906355,629.9884571313061,317.4443410679424,411.9168714329728,653.2290757290635
36.95,330.6333388841402,323.83990396026354,316.07196816906355,631.6789034305806,316.9357974720288,412.1349803129613,652.5828839010123
36.96,330.6689935044631,323.83990396026354,316.07196816906355,630.7196330463349,316.8720184150497,413.0251488620618,651.9297193770348
36.97,330.6902948650641,323.84355632479657,316.07196816906355,627.3150595163524,316.48630658482654,413.8762727734783,651.6918852690635
36.98,330.7060213482636,323.8636730239497,316.07196816906355,626.0720442690636,316.7318163971613,412.7968740291645,652.9528671984489
36.99,330.7251726918079,323.8846751448079,316.07196816906355,626.7380699532232,317.42977465114336,413.9476230058697,653.1234522981761
37.0,330.78800483946355,323.9052611994482,316.07196816906355,627.452152310337,317.9644730303371,414.63005768579296,652.7166789090636
37.01,330.78800483946355,323.9218874514636,316.07196816906355,626.1628655806148,317.8322807995389,415.00739285280287,651.883825018661
37.02,330.78800483946355,323.92565254329696,316.07196816906355,625.9772344606654,317.91915255640174,416.6385199970198,651.4698801236558
37.03,330.7975661641248,323.9499381029776,316.07196816906355,625.5944186972688,316.8015269597287,415.5675368580777,652.251600910597
37.04,330.8289965850635,323.987125814586,316.07196816906355,623.3100798885666,316.41940190724546,415.1267423697046,653.0134243042237
37.05,330.8289965850635,324.00744132370534,316.07196816906355,624.2127017299804,317.2753382495954,415.3263373277928,652.2345585923637
37.06,330.8289965850635,324.03003802346734,316.07196816906355,624.4610604686344,317.0229684686345,415.8051414122736,652.8126672301478
37.07,330.843274010056,324.0653585610636,316.07196816906355,622.1902120434094,316.27899083145456,417.078047840454,654.317775500454
37.08,330.8904842034636,324.0690970082623,316.07196816906355,623.2588525040903,316.7321894220463,415.6321255020324,654.1347944968575
37.09,330.8904842034636,324.089590831475,316.07196816906355,623.2038743748916,317.09676180906354,415.3790199192379,653.7414725490636
37.1,330.9038106199581,324.11385589528294,316.07196816906355,622.1297184748402,317.09676180906354,415.3199057229082,654.4109148952191
37.11,330.95197182186354,324.1548968309777,316.07196816906355,622.8424706498092,317.09676180906354,414.6863496004382,655.322673796727
37.12,330.965238800327,324.19206814588773,316.07196816906355,621.6291457238585,316.7832753850003,415.03965335659007,654.0285746360714
37.13,331.01345944026355,324.2125865641478,316.07196816906355,618.449618926807,316.9153753843708,414.63378998422985,653.2787864189528
37.14,331.01345944026355,324.2367983386864,316.07196816906355,618.4033904857067,316.7493977568492,414.2363750106379,653.7414725490636
37.15,331.01345944026355,324.2813625149155,316.07196816906355,620.2783570286252,317.27429910884445,415.4453384148569,654.7346533548568
37.16,331.01345944026355,324.33831849583936,316.07196816906355,618.8994520950852,316.73117692593,414.0311928776244,654.4394533485057
37.17,331.01345944026355,324.3840386392944,316.07196816906355,618.5825654057244,316.9879184765592,414.130829464067,654.3175582442022
37.18,331.01345944026355,324.4380165699004,316.07196816906355,619.4108856090636,316.6205443037301,413.27052750081066,653.5054523258352
37.19,331.01345944026355,324.4621463609479,316.07196816906355,618.4131301244613,316.73713917532746,413.74229535215926,652.7166789090636
37.2,331.01345944026355,324.4957718898636,316.07196816906355,616.4520932133064,317.45216229300286,413.9613265464237,652.0478596374412
37.21,331.01345944026355,324.5033225694031,316.07196816906355,617.0064840270863,317.90475215617244,412.8601550364345,651.4082797779554
37.22,331.02229111185306,324.55166823416374,316.07196816906355,615.3244717794688,316.84694376426626,414.2007265390768,650.5801030457258
37.23,331.0544511858636,324.62623016982286,316.07196816906355,613.4446702601567,316.07196816906355,413.796797977109,649.5946430352163
37.24,331.0544511858636,324.66346297235134,316.07196816906355,613.9560545840404,316.76589898404046,413.5864693304354,647.9460021676917
37.25,331.0544511858636,324.6802347450636,316.07196816906355,613.5976678514343,316.4075122514342,415.44457391880144,648.4035376849679
37.26,331.07018791699943,324.6856866472284,316.07196816906355,614.1409990922513,316.3649259269304,415.1487549370917,647.4487169547072
37.27,331.1364346770636,324.72498338414783,316.07196816906355,613.8813430285098,316.89035607244386,416.1847147285932,645.4780018924162
37.28,331.1364346770636,324.7455755875499,316.07196816906355,612.9318512251771,317.09676180906354,415.3161775236458,645.0307266090635
37.29,331.14600010089936,324.7622182362636,316.07196816906355,610.7534555829783,316.4313387035642,417.3368656229978,644.7218988968878
37.3,331.1774264226636,324.75837321052626,316.07196816906355,609.6753460290636,317.1379318687569,418.2385569517865,643.1807609317864
37.31,331.18724394573474,324.7417223634636,316.07196816906355,610.5437602587741,316.74074439935305,418.08191724391247,642.4687425090635
37.32,331.2279610466392,324.7417223634636,316.07196816906355,609.6533191145653,316.07196816906355,418.8434291002728,641.5924537650232
37.33,331.2642920307645,324.7417223634636,316.07196816906355,607.6602041128912,317.06231644523587,419.3439588099216,640.6513222282056
37.34,331.28473461429525,324.7417223634636,316.07196816906355,608.1546158045091,317.26207332071925,421.05717807346434,640.7153656819437
37.35,331.3004016594636,324.7417223634636,316.07196816906355,608.9955881101279,316.4066903669349,421.1449024586356,641.2626218824018
37.36,331.30478982583,324.7417223634636,316.07196816906355,607.1117222592395,316.95106484767746,421.1612376692572,640.8836306488699
37.37,331.3208975322636,324.7417223634636,316.07196816906355,606.1870304619948,317.30372913259794,423.3550953978964,640.9956159986745
37.38,331.3208975322636,324.7417223634636,316.07196816906355,606.9304998015292,317.42629650152924,423.12442869664335,641.4439488690635
37.39,331.3208975322636,324.7417223634636,316.07196816906355,607.1133619290636,317.2769205309756,423.9876226275518,642.9852098094016
37.4,331.3208975322636,324.7417223634636,316.07196816906355,605.337324864976,316.38634616359366,422.8727311803103,645.3429381898387
37.41,331.330694559462,324.7417223634636,316.07196816906355,603.9725087943987,316.07196816906355,423.8479043122615,646.0555202490635
37.42,331.36188927786355,324.7417223634636,316.07196816906355,603.8388490591079,317.6332925192856,425.4323521061765,646.9331289273122
37.43,331.36188927786355,324.7417223634636,316.07196816906355,603.3789175743013,316.9837926573645,425.21249082906354,649.8353506645541
37.44,331.36188927786355,324.7417223634636,316.07196816906355,604.0542442855377,316.07196816906355,425.80425996606886,653.467190630492
37.45,331.36188927786355,324.7379593212175,316.07196816906355,602.4818419160673,316.7618141565914,425.5753846040985,655.0972150967524
37.46,331.36188927786355,324.7212264906636,316.07196816906355,601.1837727048504,316.8035376048504,427.73634030813184,657.2416572760709
37.47,331.36188927786355,324.7212264906636,316.07196816906355,602.1852994300478,316.27918964142066,426.6542279102594,660.306273962269
