Time[s],Signal A,Signal B,Signal C,Sensor A,Sensor B,Sensor C,Sensor D
73.8,325.4590779114636,321.7493249346636,316.07196816906355,564.8889596958878,357.984574887682,418.9420142484408,517.2004868982307
73.81,325.432289805714,321.7003193027988,316.07196816906355,563.2961516354577,357.188170857467,417.7474082031182,514.8112768571729
73.82,325.37774208984405,321.6427771399128,316.07196816906355,566.0235025859699,359.35318679390207,417.0706365328495,513.9136355128494
73.83,325.3162975127769,321.60178539431274,316.07196816906355,565.2447065600775,353.1228226859361,416.1895783992086,510.9711680797776
73.84,325.2681896001408,321.5484530836999,316.07196816906355,566.8453891348373,350.40255510906354,411.8491735651144,509.0815695332671
73.85,325.20022938511056,321.4992322451707,316.07196816906355,568.5095002871512,350.40255510906354,411.4332713142568,507.4179646290112
73.86,325.14515697489696,321.4458732899232,316.07196816906355,568.6836004290635,353.3419256157554,409.4808529176144,507.19598202906354
73.87,325.1059791140397,321.38593515950686,316.07196816906355,570.2790278620374,352.2803664791268,408.5542795992465,506.0351183391316
73.88,325.03838782471985,321.32403967323813,316.07196816906355,570.1796126310211,350.5672681412335,405.5939602609658,503.4617528809658
73.89,324.9678594768277,321.26156620335644,316.07196816906355,569.7741284323076,352.18920288649963,403.56682006085634,501.43461268085633
73.9,324.90635136255503,321.2369281146636,316.07196816906355,571.8596511260879,352.04141534608794,403.4952771672607,500.2989671128176
73.91,324.85837667309204,321.1144324812871,316.07196816906355,572.6603019011471,352.8420661211472,401.4936481800254,497.8970127380527
73.92,324.7904267059982,320.9828858704821,316.07196816906355,577.6627357242049,352.720531744205,401.5860189795605,497.00426375856665
73.93,324.7353481470228,320.900894180933,316.07196816906355,575.7159844363918,350.7737804563917,399.58263964478806,494.0646083592429
73.94,324.6400710327247,320.79387908028235,316.07196816906355,577.3418666867592,352.09718666556404,399.3488370749966,493.2393604872364
73.95,324.58474037451384,320.6832444084952,316.07196816906355,576.9252122373698,353.3471479641449,396.8492670068472,491.9895754531617
73.96,324.5507746141096,320.59322243598314,316.07196816906355,579.332073324083,352.9869104542248,396.99243272794246,490.8757477417185
73.97,324.5100534140305,320.5249260886389,316.07196816906355,580.6695724953926,352.1474466448442,395.049083755014,487.6287526305841
73.98,324.4957718898636,320.4000693307159,316.07196816906355,576.8118967054204,354.02954575149715,393.3870939255347,485.6469185572992
73.99,324.4957718898636,320.3351097114636,316.07196816906355,581.3861553489882,354.44538856432365,392.5554267461673,485.231085992409
74.0,324.4957718898636,320.2981966445508,316.07196816906355,582.5183145690636,354.4504366977943,389.3447134290636,486.34753717557066
74.01,324.4957718898636,320.21050915195053,316.07196816906355,582.5183145690636,354.0521158066245,389.3447134290636,487.9401095334636
74.02,324.4688710568136,320.17114272906355,316.07196816906355,582.8665742909193,351.8899938874289,387.9345789341381,488.2372996890636
74.03,324.4547801442636,320.17114272906355,316.07196816906355,585.6503831726465,351.4923063187286,383.1399835092086,489.5102655552751
74.04,324.4547801442636,320.17114272906355,316.07196816906355,587.6963098897644,349.8361311683627,380.0797590885516,493.099736452961
74.05,324.4547801442636,320.1093825155553,316.07196816906355,588.1224498290856,349.4099912290416,379.65374417405445,495.6558320887056
74.06,324.4547801442636,320.0069625895864,316.07196816906355,589.6257626609345,347.90667839719265,376.7581651491871,494.4977476391253
74.07,324.441416835198,319.8355146136144,316.07196816906355,590.0998240004492,346.6167091549063,375.7433570984152,497.15608488674536
74.08,324.4342842714636,319.6206399823538,316.07196816906355,591.5165827614638,344.33594277683324,371.86412579901935,498.2092222692405
74.09,324.38051539876005,317.45918212943684,316.07196816906355,594.3541297720852,345.1466693229609,371.0533664594951,501.4522637265117
74.1,324.3388288430721,316.07196816906355,316.07196816906355,593.531907090904,342.6659513586129,369.2828571323018,502.2287724129998
74.11,324.2512028380903,316.07196816906355,316.07196816906355,595.5322243422801,342.2658883182551,368.4828253326011,503.82883806198834
74.12,324.1819554822482,316.07196816906355,316.07196816906355,597.015963615605,342.2543860344398,366.5612675716336,503.67780602491246
74.13,324.1678379250636,316.07196816906355,316.07196816906355,598.1803116039129,342.6425020305424,367.1057055895819,505.2469024101002
74.14,324.08704524407324,316.07196816906355,316.07196816906355,599.5338836386724,343.7413964490636,365.26206288906354,505.1463947490636
74.15,324.01783683038946,316.07196816906355,316.07196816906355,600.3871657654945,343.7413964490636,365.26206288906354,505.1463947490636
74.16,324.0038709426636,316.07196816906355,316.07196816906355,600.9421591579348,345.2112641156774,364.7874871031414,504.6718189631414
74.17,323.963760519594,316.07196816906355,316.07196816906355,603.0047818130356,347.31876863303563,365.5412945609162,504.6339979290636
74.18,323.9423833242636,316.07196816906355,316.07196816906355,601.1642237413737,348.31304391843645,365.830651193932,504.0935053666293
74.19,323.9423833242636,316.07196816906355,316.07196816906355,603.2440014420081,347.8970883783096,366.6625786708841,503.6775416281533
74.2,323.9423833242636,316.07196816906355,316.07196816906355,603.5790741193044,348.9178545793044,365.3028066346027,500.453333828398
74.21,323.9423833242636,316.07196816906355,316.07196816906355,603.987108004594,349.3258884645941,365.71096349512914,499.63702010734505
74.22,323.9423833242636,316.07196816906355,316.07196816906355,607.0020467942995,351.0653567924318,367.1496569392142,495.84283848172
74.23,323.9289482796432,316.07196816906355,316.07196816906355,610.1815653930016,352.2576775479372,367.73410904962986,494.1434764777773
74.24,323.9218874514636,316.07196816906355,316.07196816906355,609.1108261549458,349.9944023477116,368.37663006686256,492.5675652148836
74.25,323.9218874514636,316.07196816906355,316.07196816906355,608.6938376228298,350.8283794119437,368.7936862353588,489.64816998582256
74.26,323.9218874514636,316.07196816906355,316.07196816906355,610.6718943067578,351.9256218631171,370.80566153918346,485.8376572487505
74.27,323.9218874514636,316.07196816906355,316.07196816906355,610.7001396690636,351.5384855697343,372.4569607214102,483.7271500860271
74.28,323.90896480366314,316.07196816906355,316.07196816906355,611.8471522481572,352.923799562699,374.5432971013406,480.2608860285038
74.29,323.90139157866355,316.07196816906355,316.07196816906355,613.0641951254339,352.5181186036068,375.3548188873329,476.2032770985422
74.3,323.90139157866355,316.07196816906355,316.07196816906355,613.4162732283922,351.632881361502,377.1263550577535,471.7614361403736
74.31,323.90139157866355,316.07196816906355,316.07196816906355,614.6448962738011,353.2710447388511,377.9454357216345,470.9423554764926
74.32,323.90139157866355,316.07196816906355,316.07196816906355,615.6739510057562,354.5517826400284,378.5439623479019,467.0399781879436
74.33,323.90139157866355,316.07196816906355,316.07196816906355,614.4821959363401,354.94903364663804,378.160023410676,465.4435649034881
74.34,323.90139157866355,316.07196816906355,316.07196816906355,614.7458753399121,354.555168558215,379.5270243412939,463.0066322722027
74.35,323.8744087621224,316.07196816906355,316.07196816906355,614.31972105348,354.98132284464714,378.6747383138896,461.7282001567154
74.36,323.8603998330636,316.07196816906355,316.07196816906355,618.3287486161438,355.0141264890636,379.56286547405927,459.63569451907216
74.37,323.8603998330636,316.07196816906355,316.07196816906355,619.1888763644812,355.0141264890636,380.3884433296178,458.3741735482322
74.38,323.8474710365013,316.07196816906355,316.07196816906355,622.7160644039026,355.7975484334471,383.7366019697183,456.6985478145792
74.39,323.83990396026354,316.07196816906355,316.07196816906355,619.8061792598207,353.3033626310822,384.1523607494664,452.540980512972
74.4,323.83990396026354,316.07196816906355,316.07196816906355,620.6457332510416,353.47693602906355,388.2383072731613,450.465078581884
74.41,323.83990396026354,316.07196816906355,316.07196816906355,622.2813325947035,353.47693602906355,387.4206551716144,446.78564105054255
74.42,323.83990396026354,316.07196816906355,316.07196816906355,624.9975030466034,354.96437890660343,390.04053191392535,443.47535468420176
74.43,323.8264832627541,316.07196816906355,316.07196816906355,624.599989692822,354.566865552822,389.9475892795392,440.6148768910917
74.44,323.8194080874636,316.07196816906355,316.07196816906355,626.1240443479444,355.0141264890636,393.4438879890636,436.557888986076
74.45,323.8194080874636,316.07196816906355,316.07196816906355,626.5413772107235,355.0141264890636,393.4438879890636,431.9671311649044
74.46,323.79244781638243,316.07196816906355,316.07196816906355,629.0352801700437,355.5042934854246,395.34192263681854,429.9377261708505
74.47,323.7651473138128,316.07196816906355,316.07196816906355,628.3488651916225,355.5265233090636,395.8802959260052,428.2767836804714
74.48,323.71782644269217,316.07196816906355,316.07196816906355,633.0888555122383,354.50172966906354,396.545663692648,425.0481221275567
74.49,323.69643285066354,316.07196816906355,316.07196816906355,631.4619792120401,354.50172966906354,396.9525190652517,422.6069837431728
74.5,323.6695217696772,316.07196816906355,316.07196816906355,634.3206349220582,355.6772499576348,399.51509344638833,417.88382258371314
74.51,323.6018751415008,316.07196816906355,316.07196816906355,634.7212083096488,356.87896602123163,398.7142172167284,416.28206807480586
74.52,323.5331627279388,316.07196816906355,316.07196816906355,635.2465646700201,357.57611058906355,400.8458535747213,416.4449467263602
74.53,323.4314560583434,316.07196816906355,316.07196816906355,634.857997764716,357.57611058906355,401.95125953203103,413.2160679171938
74.54,323.348613790073,316.07196816906355,316.07196816906355,637.2411164323776,361.62345518592696,402.07532924843855,409.76128154843855
74.55,323.2601925452265,316.07196816906355,316.07196816906355,636.407502145094,361.2066490670789,401.2417334074406,408.9276857074406
74.56,323.1576783382428,316.07196816906355,316.07196816906355,638.7730230563697,362.6347133515298,400.6550431477152,409.7653868717604
74.57,323.05623401581914,316.07196816906355,316.07196816906355,638.0841137302289,363.89685329772834,399.4563912171018,407.5184817251402
74.58,322.9666486053976,316.07196816906355,316.07196816906355,639.2384023441665,368.1749547776851,401.0478055581816,407.2512565355738
74.59,322.9380855570636,316.07196816906355,316.07196816906355,637.6131411187449,371.8317935596773,399.8292213912703,406.8450631796616
74.6,322.89777222485327,316.07196816906355,316.07196816906355,638.4195122919026,375.8596158376987,401.01462888888017,410.1094121462956
74.61,322.83637888746813,316.07196816906355,316.07196816906355,638.8203931175851,378.66578161747606,399.8120089572929,412.9155246368037
74.62,322.7748031368151,316.07196816906355,316.07196816906355,636.6377015404473,383.7570179086145,399.59264982906353,415.7098089591189
74.63,322.7134384936519,316.07196816906355,316.07196816906355,635.0840938863346,384.145418797349,398.360499443946,418.4536508888861
74.64,322.63834366529994,316.07196816906355,316.07196816906355,634.6270707658783,389.65615026584686,396.4384784762532,423.1691445423312
74.65,322.54284724516293,316.07196816906355,316.07196816906355,633.3765396820337,392.1572144831234,395.6047904038276,428.5881139387161
74.66,322.45383162000525,316.07196816906355,316.07196816906355,633.7362975885302,396.8353810530252,395.49347526906354,433.5857107357932
74.67,322.3379008146866,316.07196816906355,317.06109694080425,631.7651049724028,398.6249781865572,393.56007294320494,438.5634019412069
74.68,322.1788815359805,316.07196816906355,319.249234271345,628.7109350325709,402.5007128900534,390.9359392081135,446.1136305715252
74.69,322.01113921381074,316.07196816906355,320.4287738005723,629.5049758886522,406.07389981679967,391.7300866427333,452.0697414551416
74.7,321.84695907433365,316.07196816906355,320.6666570986382,629.55944981938,412.7503688937813,390.8056879364695,456.8497766120339
74.71,321.6830966208849,316.07196816906355,320.90027725516177,628.7564317710123,415.56093923662337,390.0026370947054,460.8650308208544
74.72,321.5054097012326,316.07196816906355,321.1137253736755,624.8032985030616,421.406058820266,390.3134590553047,464.7871087423387
74.73,321.3481940593329,316.07196816906355,321.28158862149473,622.861880241351,423.7357611442363,389.5481493137145,468.875547564166
74.74,321.17694899250165,316.07196816906355,321.622744473838,622.4335267477672,432.6029869243024,385.638711196986,476.18246763888834
74.75,321.0465214563516,316.07196816906355,321.98344109130886,622.0166837363481,442.6072642892815,384.3877701956853,484.1050878316972
74.76,320.9306357419531,316.07196816906355,322.3193704960881,618.0465020014022,456.4194719113598,382.3211139528175,489.4370870910299
74.77,320.788218120215,316.07196816906355,322.66690876322133,615.4863153894468,470.1116843965432,382.1711579490636,499.4247853445011
74.78,320.672943182826,316.07196816906355,323.0415056816251,613.3015680762671,489.7361833628004,379.4708103109653,510.31142233104384
74.79,317.64844101887206,316.07196816906355,323.38866887428605,613.707759382592,505.1714284081015,377.43884743198606,518.4392717973736
74.8,316.07196816906355,316.07196816906355,323.5119699954636,613.0106824511404,519.7259186586791,376.4185177930818,530.0429712409352
74.81,316.07196816906355,316.07196816906355,323.89257015501045,611.0077376288714,529.7406386708498,375.216377464918,538.4579555876695
74.82,316.07196816906355,316.07196816906355,324.2578557984012,609.386606321819,545.195391687882,374.9976024690636,547.2638064766361
74.83,316.07196816906355,316.07196816906355,324.478756216265,607.0487732851088,554.1570829456833,374.1749473249663,554.7689605834927
74.84,316.07196816906355,316.07196816906355,324.68829372224855,606.0885682890636,562.6468915752484,370.3459288643431,565.3463722379272
74.85,316.07196816906355,316.07196816906355,324.83604641967645,606.0885682890636,567.6450602071766,369.92948142326895,573.2588531224619
74.86,316.07196816906355,316.07196816906355,324.9470274717139,604.1280007333958,572.0923407699863,370.3478903193701,581.4337918565499
74.87,316.07196816906355,316.07196816906355,325.05852911892043,603.2430647806211,575.0560870181992,370.77202371274416,585.8658521842183
74.88,316.07196816906355,316.07196816906355,325.1821520253009,603.9999015283958,575.9353148703991,369.36123744906354,593.5515851783792
74.89,316.07196816906355,316.07196816906355,325.29468461490933,603.593843445244,576.7474310367026,369.36123744906354,597.6129694481107
74.9,316.07196816906355,316.07196816906355,325.3483469090743,602.2378918396525,575.4441579233817,368.8488406290636,601.1552526978492
74.91,316.07196816906355,316.07196816906355,325.3934296308851,604.243804464303,576.2465242029942,368.8488406290636,603.1612063142452
74.92,316.07196816906355,316.07196816906355,325.4307403177303,603.9907296253177,570.3471786886847,370.2137161376721,600.7968311222592
74.93,316.07196816906355,316.07196816906355,325.4385820386635,603.6020376951894,567.237641198071,371.2064706293112,595.5295680771652
74.94,316.07196816906355,316.07196816906355,325.4890080345134,607.1133619290636,564.22116931708,372.0419356939085,590.9124874065566
74.95,316.07196816906355,316.07196816906355,325.5205655298636,607.1133619290636,557.1322925355532,373.2927373232741,587.5770157117192
74.96,316.07196816906355,316.07196816906355,325.5205655298636,607.1133619290636,551.9754817489785,373.934696753592,580.4898954264913
74.97,316.07196816906355,316.07196816906355,325.54472401513294,608.3057544201237,546.2100050278622,374.3584509733192,575.3286267875826
74.98,316.07196816906355,316.07196816906355,325.56155727546354,610.8197966240572,535.6048870525766,376.70319111916297,563.8194317639145
74.99,316.07196816906355,316.07196816906355,325.5741929810448,612.0677288312307,527.2853417375355,379.1981414175832,560.0770042666968
75.0,316.07196816906355,316.07196816906355,325.5820531482635,612.4420531545263,517.4451010409241,378.7812102739111,550.6716163049338
75.01,316.07196816906355,316.07196816906355,325.5820531482635,614.0829055903869,509.2408347624468,380.8325642981465,544.5175542322277
75.02,316.07196816906355,316.07196816906355,325.5820531482635,616.5822133113644,497.52337912567054,383.0286683744445,536.5175149790913
75.03,316.07196816906355,316.07196816906355,325.5820531482635,618.5709544937831,485.5909279319841,385.3149686381735,528.6855480316768
75.04,316.07196816906355,316.07196816906355,325.5820531482635,620.9480760690635,473.70410874949965,383.43847515273137,519.4804375405663
75.05,316.07196816906355,316.07196816906355,325.5820531482635,620.9480760690635,463.8876699099707,385.99837482246767,513.9339858649525
75.06,316.07196816906355,316.07196816906355,325.5820531482635,623.4746248545796,455.0448977557422,387.7392245721321,507.9588035716958
75.07,316.07196816906355,316.07196816906355,325.5820531482635,626.3117926915543,443.7245762991007,387.03021699312353,503.43319803098086
75.08,316.07196816906355,316.07196816906355,325.6296527632543,627.3724971502871,431.3223310066164,387.3502395510228,495.0250613553491
75.09,316.07196816906355,316.07196816906355,325.725483266118,630.2818248066287,425.5036777435204,388.1813758872847,489.2071070015157
75.1,316.07196816906355,316.07196816906355,325.8647629697304,630.3759316065899,418.14190661401074,391.6296240726168,479.9630379553869
75.11,316.07196816906355,316.07196816906355,326.0163442961973,632.0161732654411,414.8614232963085,394.0907295362824,473.8102773706036
75.12,316.07196816906355,316.07196816906355,326.0985470932363,632.2208061090636,412.1634203860586,397.7619482226312,464.8674607620638
75.13,316.07196816906355,316.07196816906355,326.18821653673626,632.2208061090636,410.2181448010869,400.11975653697215,457.13603631866977
75.14,316.07196816906355,316.07196816906355,326.3212388503828,631.7611677152381,410.6015918373657,401.3724663320954,445.6546316489311
75.15,316.07196816906355,316.07196816906355,326.3813921874636,632.1879512249651,408.4676742887301,403.9323639522443,439.6815378851126
75.16,316.07196816906355,316.07196816906355,326.4067312350062,632.2208061090636,410.37825241063865,403.2244549520179,431.6989570164273
75.17,316.07196816906355,316.07196816906355,326.4223839330636,632.2208061090636,411.96505927951296,406.2900800351577,424.3622871823358
75.18,316.07196816906355,316.07196816906355,326.4223839330636,629.7404386241403,416.0301574013956,408.01872244298255,416.2170920588553
75.19,316.07196816906355,316.07196816906355,326.4223839330636,630.59090461804,416.4553893735518,411.4199530961114,411.9655511804601
75.2,316.07196816906355,316.07196816906355,326.4223839330636,629.6588220090636,421.0581741728825,409.4452372394498,406.21998415018174
75.21,316.07196816906355,316.07196816906355,326.4469092944561,629.6588220090636,424.7427889616933,410.6736389294323,400.4874381478932
75.22,316.07196816906355,316.07196816906355,326.4507358739078,628.5360806425397,430.0199597116987,413.6889650911336,396.2984670699818
75.23,316.07196816906355,316.07196816906355,326.4428798058636,627.7411748606262,431.6097692259381,413.51656200748914,392.6202818364684
75.24,316.07196816906355,316.07196816906355,326.4428798058636,625.506786543525,437.668597225679,414.8431266306599,387.5241941722382
75.25,316.07196816906355,316.07196816906355,326.4551814287181,625.0802776784935,438.94812177118655,413.5636041347397,384.5386362161916
75.26,316.07196816906355,316.07196816906355,326.48798302354726,624.0095527875486,445.2733879189783,414.8968709083161,381.77156836336746
75.27,316.07196816906355,316.07196816906355,326.5164497412792,623.216635105297,450.03089811166336,413.40958584899687,380.8812768390302
