Time[s],Signal A,Signal B,Signal C,Sensor A,Sensor B,Sensor C,Sensor D
39.6,335.91369469277873,323.7169287234635,316.07196816906355,568.6229736373211,316.07196816906355,529.5774484820289,648.1051075290635
39.61,335.7980836230758,323.7169287234635,316.07196816906355,568.9187905694436,316.07196816906355,528.6505410809345,648.3790184723373
39.62,335.75102099995246,323.6985008842291,316.07196816906355,570.427333948031,316.07196816906355,531.1936484820856,648.8749489081298
39.63,335.671911030119,323.6779722180326,316.07196816906355,569.6748710195119,316.4311234968998,530.7662357490635,647.5927107090636
39.64,335.6293206064406,323.65812811398763,316.07196816906355,571.2089870985919,317.58171055620977,530.7662357490635,647.5927107090636
39.65,335.5682224096238,323.6554411050635,316.07196816906355,569.3435244918907,316.07196816906355,529.3284420737945,645.7419169985253
39.66,335.5067983284295,323.6554411050635,316.07196816906355,568.2909548450721,316.07196816906355,529.9832872593418,646.527609885615
39.67,335.4260015482646,323.6369968691308,316.07196816906355,569.8979788428762,316.3527616264236,532.3011839605794,646.1841810409783
39.68,335.3633579626387,323.63494523226353,316.07196816906355,571.3178468277945,316.9710093814992,530.853082910879,646.437647351134
39.69,335.3017350714782,323.63494523226353,316.07196816906355,568.5783110809026,316.07196816906355,532.0235776114397,645.2632748314397
39.7,335.2595361189703,323.63494523226353,316.07196816906355,569.6234017837365,316.07196816906355,532.7733289359873,646.0130261559873
39.71,335.18012895898124,323.5809939462921,316.07196816906355,569.2813769063865,316.3708574325187,531.6217908681793,645.1675222128925
39.72,335.13607922915946,323.5734576138636,316.07196816906355,570.6311182625195,316.89262086638826,534.6975798546407,645.2880379449566
39.73,335.0569918047861,323.5734576138636,316.07196816906355,569.386729791753,316.19111887599905,531.8196744208889,644.1141409295111
39.74,334.9947827316635,323.5370261999616,316.07196816906355,566.7095916800135,316.57356776327254,533.7319168076687,644.4965898167846
39.75,334.9327560718089,323.5324658682636,316.07196816906355,569.4387421681575,316.07196816906355,533.6418743392837,642.9811393290636
39.76,334.9092329585964,323.5145196820399,316.07196816906355,569.8139949544909,316.07196816906355,532.9688001244682,642.942896080006
39.77,334.8316068899536,323.4935175611817,316.07196816906355,567.9763370488303,316.07196816906355,533.909222504087,642.0589480283004
39.78,334.7686312711884,323.4730155396199,316.07196816906355,570.6179168708491,316.07196816906355,531.7136328741963,640.8445511682021
39.79,334.70735476027824,323.4709782498636,316.07196816906355,568.3071281382986,316.07196816906355,533.6074084795833,640.5357603485974
39.8,334.6466398362828,323.4709782498636,316.07196816906355,568.8010253835093,316.07196816906355,532.8615882634386,640.9086684070824
39.81,334.5842503994795,323.45301566694167,316.07196816906355,569.4778052521272,316.07196816906355,531.718381767924,640.178800128738
39.82,334.54169481878495,323.413585706849,316.07196816906355,567.1498061351865,316.2755680206969,533.7604962527012,640.5929704783439
39.83,334.4627098737756,323.4094906314636,316.07196816906355,566.0316906871535,316.8630453219379,531.1907913574173,638.5635470380046
39.84,334.4017756439412,323.39170636263503,316.07196816906355,569.0351169451072,316.1121892698463,532.6926981723922,637.4371184639639
39.85,334.33850693419487,323.3889947586636,316.07196816906355,570.9743708426502,316.07196816906355,531.8993193330024,638.1529860115986
39.86,334.29598824607126,323.3889947586636,316.07196816906355,571.4167742570382,316.07196816906355,532.5252509907907,637.3078038537069
39.87,334.2168352349049,323.37057511777823,316.07196816906355,569.1317406382483,316.2213482387918,534.0085680491359,637.1062248951316
39.88,334.153796078934,323.3684988858636,316.07196816906355,570.4324025773744,316.4785591449081,530.7833026623441,637.6806832179701
39.89,334.1114167627454,323.3684988858636,316.07196816906355,569.7143973102067,316.07196816906355,532.9457053749971,636.577367839686
39.9,334.07095176107634,323.3684988858636,316.07196816906355,566.1902119161506,316.1881674703159,531.7910293890635,635.8457656105028
39.91,333.9914503200725,323.3684988858636,316.07196816906355,569.988802204015,316.7990080169616,532.3363856221132,636.047301527745
39.92,333.9283086847375,323.3500566995181,316.07196816906355,568.3750740062179,316.17390439243434,533.1614715767246,635.6347585504394
39.93,333.8858309883595,323.3480030130636,316.07196816906355,569.0765923933053,316.46496013330534,530.0669985526188,636.8021809196673
39.94,333.8462534579827,323.3480030130636,316.07196816906355,568.6934732909913,316.0818410309913,531.216357909148,634.8865792593355
39.95,333.8418898866635,323.3480030130636,316.07196816906355,569.046475757813,316.07196816906355,532.0242006859728,633.6590445447724
39.96,333.72846777617565,323.3300978185855,316.07196816906355,569.8788561935538,316.07196816906355,529.1247089989879,633.3197927590123
39.97,333.68089890499414,323.2906289163345,316.07196816906355,567.7424299500875,316.07196816906355,532.8522339470927,633.588221056312
39.98,333.620940278705,323.2865153946636,316.07196816906355,568.6730061124132,316.2811654435586,529.2370243323446,632.0553265312509
39.99,333.5406702424711,323.2865153946636,316.07196816906355,567.5830663407185,316.8256034615069,531.6747214596854,633.5253807103072
40.0,333.5157657074318,323.2865153946636,316.07196816906355,570.2599482540479,316.07196816906355,531.3016555829798,632.7792469073088
40.01,333.43796747345755,323.2505451378996,316.07196816906355,569.2421580537837,316.07196816906355,529.3996303887907,632.0502210093365
40.02,333.3939771816669,323.2455236490636,316.07196816906355,565.9124538975523,316.3752025575523,530.7740590237114,630.1712188290636
40.03,333.3145474762178,323.2084527639302,316.07196816906355,566.7973755032159,317.26012416321595,528.7319219934741,629.8546170323347
40.04,333.30899719386355,323.20453190346353,316.07196816906355,565.6703771439114,316.1331258039115,530.6104937604182,628.7274731523333
40.05,333.30899719386355,323.17407913565734,316.07196816906355,565.0968226890635,316.07196816906355,529.2330850255925,626.8934963054276
40.06,333.19529633950555,323.145667756782,316.07196816906355,565.3938099355229,316.1462144682816,527.6775302635637,626.0720442690636
40.07,333.1289716951248,323.1430442850635,316.07196816906355,567.2957818404427,316.4349931176844,530.5587478303601,625.5243638040384
40.08,333.1055551604508,323.1246348921146,316.07196816906355,566.9233390382702,316.07196816906355,527.266868807381,624.1972806352857
40.09,333.00925735168727,323.0857747172858,316.07196816906355,564.4790565869987,316.07196816906355,527.808267287393,624.1159591607772
40.1,332.9828853121555,323.0815566666635,316.07196816906355,565.4927722077502,316.07196816906355,528.1811261557833,621.1330800153055
40.11,332.90509322694305,323.04559050907415,316.07196816906355,564.3629474675867,316.07196816906355,527.5790762889816,623.1104418891456
40.12,332.8801436009836,323.02218422233653,316.07196816906355,565.3650316805243,316.07196816906355,528.3578579677632,621.8293535085434
40.13,332.7835465524772,323.0200690482635,316.07196816906355,566.053873370285,316.30402449049245,526.1546643690635,620.666993619897
40.14,332.7386380455852,323.0200690482635,316.07196816906355,564.1829855060536,317.0523800461024,526.1546643690635,619.6690905650107
40.15,332.73511275546355,323.0200690482635,316.07196816906355,563.4664784871875,316.4632548766884,524.7264525143285,620.0322610343285
40.16,332.6594768360697,323.0200690482635,316.07196816906355,561.6800274701304,316.07196816906355,525.3142331544868,620.1775726733058
40.17,332.55797102602776,322.9646707536724,316.07196816906355,563.1962199084467,316.07196816906355,526.1907944936354,616.9853609805787
40.18,332.53165842452705,322.94015564021635,316.07196816906355,563.6642534117711,316.28121258406605,522.3162710962216,617.4482254247829
40.19,332.45436028984915,322.9197089575111,316.07196816906355,563.5185462024488,316.8200203857561,523.7193222175075,617.1138434584001
40.2,332.42948854820634,322.90207225896665,316.07196816906355,561.9084232286772,316.07196816906355,523.8813871829117,614.7993142290635
40.21,332.33259225995704,322.8970938114636,316.07196816906355,562.038731888765,316.07196816906355,521.9837419567399,614.6631642452278
40.22,332.3062263691872,322.8970938114636,316.07196816906355,564.1770990913855,316.2756315579026,524.0235342591287,614.1172197806286
40.23,332.22864334187733,322.87864957553086,316.07196816906355,563.012080888037,316.9774512343202,521.3556951248786,613.3704567543352
40.24,332.2039232696933,322.8765979386636,316.07196816906355,564.541218519614,316.59516631402914,522.5028491254945,613.7528421044029
40.25,332.10721144429914,322.8765979386636,316.07196816906355,560.220827905309,316.1959538523926,520.6965929465508,611.6135648850301
40.26,332.09974069866354,322.8765979386636,316.07196816906355,561.0717038166646,316.5103093014626,519.6579850882836,611.0480571098436
40.27,332.0045004769365,322.8765979386636,316.07196816906355,561.8073006914566,316.07196816906355,520.8946015240844,609.9475373686093
40.28,331.9782698589271,322.85816190107994,316.07196816906355,562.6398041024343,316.07196816906355,520.4309807821737,610.1762282677245
40.29,331.9767654618635,322.8561020658636,316.07196816906355,562.7764931277247,316.07196816906355,520.2381761067442,607.7418965626975
40.3,331.8835030918617,322.8561020658636,316.07196816906355,561.9848974292685,316.1095125088586,520.9829428350268,608.1142799268388
40.31,331.7791975455952,322.87410564053107,316.07196816906355,561.5100449490635,316.43558954758294,518.2614373074372,605.4399190058638
40.32,331.7527845143179,322.8765979386636,316.07196816906355,561.6128378999174,316.1747611199174,519.7457812090097,604.892103268078
40.33,331.6751891894844,322.8765979386636,316.07196816906355,562.3769404345996,316.58436498906354,516.4428651585278,604.1462092667913
40.34,331.65059619171166,322.84025670660185,316.07196816906355,563.5244674601006,316.58436498906354,518.3553575949559,604.5287073441594
40.35,331.5728614949431,322.8356061930636,316.07196816906355,561.3703430304714,316.07196816906355,517.2204539775124,600.9646000890635
40.36,331.54789957146,322.8356061930636,316.07196816906355,562.236963871312,316.07196816906355,516.6409044798705,600.6319315776468
40.37,331.4701935689133,322.8356061930636,316.07196816906355,560.1876737814677,316.2207579576552,517.7870213893228,597.8902191690636
40.38,331.4453587198415,322.8356061930636,316.07196816906355,559.4604576690635,316.4813916745291,515.9920440891808,597.4636365188899
40.39,331.44387276906355,322.8356061930636,316.07196816906355,558.9059951197288,316.07196816906355,516.4191247890635,594.9473274714247
40.4,331.33181158452953,322.8356061930636,316.07196816906355,557.581209538317,316.1287478854814,516.3075411583658,593.6422650684084
40.41,331.2448598937628,322.8356061930636,316.07196816906355,558.79952111012,316.4358252501201,515.1540723793402,591.4693192787869
40.42,331.2389140410636,322.8356061930636,316.07196816906355,558.1302529788835,316.07196816906355,515.4824408566435,590.5469496639304
40.43,331.1247376824566,322.8356061930636,316.07196816906355,557.6097582395402,316.07196816906355,513.5600079219074,589.3689739697977
40.44,331.1159388042636,322.8356061930636,316.07196816906355,559.8985917931474,316.07196816906355,514.3229524397765,588.2245561682006
40.45,331.0210634090724,322.8356061930636,316.07196816906355,556.758408873523,316.3201895853698,511.11734054541256,585.3696409549684
40.46,331.01345944026355,322.8356061930636,316.07196816906355,558.1460122554794,317.02251346025827,512.3199502290636,584.2917199630836
40.47,330.9179117804445,322.8356061930636,316.07196816906355,560.0521325250539,316.436446275066,512.1847676504239,581.7355546413714
40.48,330.9109800762636,322.8171435108453,316.07196816906355,561.4072827420189,316.1747303761082,511.4683241687635,580.8963162865917
40.49,330.9109800762636,322.8151103202636,316.07196816906355,560.9976481290636,316.8609239991031,510.0109917779541,579.3301098194688
40.5,330.8176869624525,322.8151103202636,316.07196816906355,560.714727200107,317.5525736234373,510.63648072489,575.8937246453132
40.51,330.6939554279462,322.8151103202636,316.07196816906355,559.3047607713384,316.95191132722414,508.7331724890636,575.8397836072784
40.52,330.6855254754636,322.79669067937823,316.07196816906355,562.1159890316973,316.49780067029275,508.5269860582828,574.1825078285431
40.53,330.6855254754636,322.7946144474636,316.07196816906355,563.9170679531719,316.07196816906355,507.19598202906354,572.6529971720813
40.54,330.6855254754636,322.7946144474636,316.07196816906355,560.0942925354036,316.07196816906355,507.19598202906354,570.3597201132511
40.55,330.4955492304803,322.7946144474636,316.07196816906355,562.8016641091103,316.8511905091104,507.207390031864,568.5948102585066
40.56,330.46162036264724,322.758705678318,316.07196816906355,562.1681530775606,316.2176794775606,505.1463947490636,566.1753811025925
40.57,330.3649064876659,322.75362270186355,316.07196816906355,563.7910511288484,317.2455249530205,504.7376312107022,565.4077204843921
40.58,330.35759151066355,322.75362270186355,316.07196816906355,564.7800507765904,317.50551304990125,503.781006843635,562.1083440711429
40.59,330.35759151066355,322.75362270186355,316.07196816906355,561.7806253130074,316.8261814451198,504.4020748308079,561.8390672447092
40.6,330.26428609932884,322.75362270186355,316.07196816906355,562.5348385890635,316.1479443199459,503.6561500857119,559.601297108596
40.61,330.1410587632934,322.7356273255451,316.07196816906355,562.5348385890635,316.8008669926245,502.1015032908482,558.6476282463867
40.62,330.1321369098636,322.7331268290636,316.07196816906355,562.4338082832704,316.37505908644266,503.60920428906354,556.3019391416323
40.63,330.03698277080224,322.7331268290636,316.07196816906355,562.1403750211548,317.25535887279,503.2881302928897,555.44558263389
40.64,330.0296575458636,322.7149428907154,316.07196816906355,562.5232276771223,316.1068009048872,502.13989411018986,553.914600373761
40.65,329.91567999722275,322.7126309562636,316.07196816906355,561.9323562593457,316.31296069103325,502.55561394777953,553.066421719266
40.66,329.9066823090636,322.7126309562636,316.07196816906355,560.1441487459896,317.1538592115098,500.6466816444568,550.311887092659
40.67,329.7924793058219,322.694166224458,316.07196816906355,561.3622205160808,317.3135097630981,501.6659885393083,550.450057969553
40.68,329.8026821513018,322.69213508346354,316.07196816906355,560.688105110927,316.6875453119133,500.4494601084388,548.1023643684388
40.69,329.6903770658815,322.673735938451,316.07196816906355,559.4604576690635,317.5023648838392,500.02242654906354,547.2114333728701
40.7,329.6812277082635,322.6716392106636,316.07196816906355,559.4224357754323,318.557908481801,500.02242654906354,545.7199938001343
40.71,329.5861412055825,322.6356095158684,316.07196816906355,558.503421334953,317.1645191149531,499.40469733956974,544.811614668051
40.72,329.57874834426354,322.63064746506353,316.07196816906355,557.7127827937567,316.2732437887214,500.3676569809195,542.7185289972076
40.73,329.46460887822764,322.63064746506353,316.07196816906355,558.3690012027815,317.2125737383199,499.41652345817545,543.2021332150982
40.74,329.4744878889172,322.63064746506353,316.07196816906355,556.4989495701604,317.58658447476165,499.0838037070766,541.8712501115285
40.75,329.38130340323204,322.5992272920612,316.07196816906355,555.8529176099172,317.73206622948334,496.5460457287262,542.1097728808256
40.76,329.39274010025446,322.5896557194636,316.07196816906355,556.8267216175653,318.0485368526263,497.0562535895112,540.5017753290635
40.77,329.27966437001686,322.5896557194636,316.07196816906355,553.9046434787549,317.7573950290896,497.70118697097234,539.9584686832939
40.78,329.29030787676186,322.5896557194636,316.07196816906355,554.8468203050853,318.1215554490636,496.94804562906353,538.5374652270225
40.79,329.17788801445386,322.5896557194636,316.07196816906355,553.8792798361649,318.25655356484805,496.7165242499148,538.7330634899148
40.8,329.1874800829243,322.5896557194636,316.07196816906355,556.5234482869183,318.6339522690636,495.9710299181476,537.9875691581477
40.81,329.0561999184657,322.5536280742557,316.07196816906355,552.6403309700395,318.6339522690636,496.1871547976491,537.9243824318925
40.82,329.08385704922205,322.54866397386354,316.07196816906355,554.4152879016304,318.4605120942554,496.67225726384135,536.6094430677738
40.83,328.972783765757,322.54866397386354,316.07196816906355,552.8767365156765,317.72712467455125,495.1124147652228,537.7258348129044
40.84,329.00120949174334,322.54866397386354,316.07196816906355,554.7833240911509,318.1084421896461,495.8750333987143,536.9632161794128
40.85,328.8719932616757,322.54866397386354,316.07196816906355,552.0154671472241,318.2115630744648,494.3860615290636,535.9984610996058
40.86,328.880310486858,322.54866397386354,316.07196816906355,552.4020070107083,319.94411814440707,494.3860615290636,536.3284958913679
40.87,328.7677307567421,322.5302033412326,316.07196816906355,550.2456895226896,318.26915032827094,494.1159300247341,535.9180721873097
40.88,328.7968328465309,322.50977100563824,316.07196816906355,552.5945821323627,318.8386691457645,493.3612678890636,537.0892760450693
40.89,328.6671677568489,322.5076722282635,316.07196816906355,552.050031387114,319.65874590906355,493.4874322836712,535.7563023624739
40.9,328.693681217903,322.5076722282635,316.07196816906355,553.0200457078814,319.8243054207801,493.7318086742402,536.808605562946
40.91,328.5834175214136,322.5076722282635,316.07196816906355,554.2716200316515,320.6186701116515,491.8240774290636,535.9062665645769
40.92,328.5934502511492,322.5076722282635,316.07196816906355,552.7128310208949,319.4922189921508,491.6865808663847,537.152401283706
40.93,328.4807700912566,322.5076722282635,316.07196816906355,552.051334924624,320.84258547240427,490.9062374020958,535.3778071290635
40.94,328.49063475483524,322.48956617423204,316.07196816906355,551.2884641918971,319.69828039810744,491.2876655949038,535.3778071290635
40.95,328.49246708586355,322.48717635546353,316.07196816906355,552.3179882793394,320.17114272906355,489.8826940103366,535.081820081197
40.96,328.3982742032365,322.48717635546353,316.07196816906355,550.9161628112469,320.11565835180664,490.1442561902484,535.8902039490636
40.97,328.2948766241352,322.46873826829267,316.07196816906355,553.0281846189703,319.65874590906355,488.101496085478,536.026007552649
40.98,328.3065162302983,322.46668048266355,316.07196816906355,554.6444829992164,319.7609485787808,487.7249028690636,536.0644311653873
40.99,328.19424188868715,322.46668048266355,316.07196816906355,553.548595325235,320.17114272906355,487.85091559421255,534.3530134890635
41.0,328.2036453951278,322.45119790035045,316.07196816906355,552.7443946650069,320.17114272906355,487.9916628023174,534.4582864405262
41.01,328.09150837586446,322.4461846098636,316.07196816906355,552.8759576725101,320.17114272906355,485.3243811558074,535.8902039490636
41.02,328.10154315518736,322.42775882021635,316.07196816906355,553.9368732387328,320.3709508442289,486.881200513188,535.3932466700437
41.03,327.98897777218247,322.4072404019563,316.07196816906355,552.99425370155,320.9601518483724,485.2699072250796,532.8158230290636
41.04,327.99875020433353,322.4051928642636,316.07196816906355,555.2843887430798,320.19677486758724,485.65165925267775,532.8158230290636
41.05,328.00056613866354,322.4051928642636,316.07196816906355,554.123533251497,321.6774766525632,484.76959067250783,533.2298888497182
41.06,327.9059756361043,322.386844958933,316.07196816906355,557.878707132009,322.911348690996,483.0772485049992,532.8158230290636
41.07,327.80295723064967,322.3846969914636,316.07196816906355,554.7886038279843,321.0572879383334,482.87146174373805,532.4100313922581
41.08,327.8146091343365,322.3846969914636,316.07196816906355,557.7214853413475,322.8374221273936,483.3729691065194,531.3628849533825
