Time[s],Signal A,Signal B,Signal C,Sensor A,Sensor B,Sensor C,Sensor D
94.4,307.2114568369267,307.77049816424494,316.07196816906355,545.9454074091888,361.1323248835442,316.07196816906355,462.8014091474435
94.41,307.09860246211537,307.5094073894076,316.07196816906355,546.6187952108581,359.6891817854743,316.07196816906355,463.0823788693096
94.42,306.9601548909386,307.2772239935673,316.07196816906355,548.4865451569639,360.08470089083227,316.07196816906355,463.12985550906353
94.43,306.83682712512643,307.0922425927855,316.07196816906355,548.2038742776554,356.54808679951026,317.0714432573937,462.6301189896921
94.44,306.71928124503114,306.90293656284285,316.07196816906355,550.4480698698914,356.0992476810631,316.688465576602,463.02575492152505
94.45,306.61697609594995,306.7219600556061,316.07196816906355,550.2647383868699,355.0004147501604,317.09164398962537,465.192234263278
94.46,306.515111608134,306.62125973336515,316.07196816906355,551.0289434009162,354.61831224313727,316.32757014916507,467.10242501319067
94.47,306.41721307170474,306.5689850097887,316.07196816906355,551.3993591612688,356.3042658470942,318.5965882929492,471.39047723939177
94.48,306.3460841947396,306.4778439626217,316.07196816906355,553.5379928102357,352.45472486903634,317.5399891575381,473.1514744320187
94.49,306.29429317376133,306.4243169412172,316.07196816906355,552.6603964295107,352.47992249505666,317.566025064756,477.1371080054685
94.5,306.2073968218512,306.3512225100506,316.07196816906355,550.5247059878778,352.90706058338327,316.36867872124003,481.9264913299449
94.51,306.12618397546845,306.3364285890636,316.07196816906355,551.2744778082983,349.3777614690636,316.55247341098675,486.47686408335136
94.52,306.0899431731835,306.2774086737487,316.07196816906355,552.6917305198473,349.3777614690636,317.0458172676319,491.3146299651595
94.53,306.0073304586885,306.2089873015804,316.07196816906355,552.6939871154426,347.805467727719,316.07196816906355,496.4755645213416
94.54,305.9307927208915,306.12504235535346,316.07196816906355,550.0023317769989,346.90824859837534,316.07196816906355,500.5131428348157
94.55,305.86956949925064,306.0699822426636,316.07196816906355,552.8391347874376,347.96007834418583,317.2064598194637,508.30304815207006
94.56,305.814021584788,306.0699822426636,316.07196816906355,553.2664204460484,349.24193736960524,318.9153892968295,509.5847473096816
94.57,305.7830400234636,306.0699822426636,316.07196816906355,552.6828394102266,349.05946261406683,318.66074447398773,515.1766547319912
94.58,305.77762501386985,306.08904340436754,316.07196816906355,551.4302320944673,351.14714352325296,319.07833968393857,519.7702040910381
94.59,305.7625441506636,306.1342245063679,316.07196816906355,551.1793544130463,349.97291242508084,320.69754232936054,523.6626900713737
94.6,305.7625441506636,306.1867964200999,316.07196816906355,549.8982824291423,351.2539844089848,321.0866667224049,525.6083161357703
94.61,305.7678115899731,306.2433342852187,316.07196816906355,550.1750730425445,349.6267268855524,320.3729512414142,528.2121282129806
94.62,305.7830400234636,306.28934547006736,316.07196816906355,547.9532159020732,351.6618604760539,321.0507682011957,530.0360866772618
94.63,305.7938782410002,306.3558197343196,316.07196816906355,548.1758318244904,351.4392445536367,322.6489420811248,532.1911805616744
94.64,305.8402726986703,306.43774173790126,316.07196816906355,549.0438279383958,351.4273487490636,323.148574071545,532.7188734515449
94.65,305.88551938746355,306.5245028170509,316.07196816906355,547.6753308090636,350.40255510906354,324.74355264490464,532.3164800304498
94.66,305.8960276214481,306.6262340816937,316.07196816906355,547.6753308090636,350.40255510906354,324.39640994811646,531.1445137262223
94.67,305.937421086155,306.72000269975376,316.07196816906355,547.174202619929,350.40255510906354,324.74848395190025,528.8535690977167
94.68,305.9891772641496,306.8007113476656,316.07196816906355,547.6131094384174,349.95237965970983,327.32097628588485,527.6288218218544
94.69,306.07127348265,306.9151869460154,316.07196816906355,548.1804208504104,347.8442254231838,328.8650041690509,524.2063840891394
94.7,306.1475017327677,306.9355803394514,316.07196816906355,547.2617999306889,348.30353588304456,330.68113116033527,523.2054558434277
94.71,306.20363787877966,306.9513047730636,316.07196816906355,544.7585057624517,344.5058822565672,330.93147594906355,519.8227145171517
94.72,306.25013481581374,306.9513047730636,316.07196816906355,545.06085882841,343.7938843297171,334.0523189631139,516.8184971185079
94.73,306.311638830912,306.9513047730636,316.07196816906355,548.6928607117432,341.6918091690636,333.5207421053476,512.9278352708515
94.74,306.3677257868291,306.9464779950192,316.07196816906355,547.3448922486074,341.6918091690636,335.9414891458828,510.38431795224426
94.75,306.41402801307163,306.9163982520979,316.07196816906355,545.1311555729395,340.658110072332,337.56281516372684,506.27555542294846
94.76,306.45940382586355,306.8646338757542,316.07196816906355,547.8684408729979,339.28946947189,340.26885450570165,503.0489332093773
94.77,306.4812954676013,306.8292457017777,316.07196816906355,546.6852633263485,334.1216134594634,341.63577345282835,498.2249958929474
94.78,306.54138731706354,306.76197619766083,316.07196816906355,547.0257366661276,333.2554558253481,343.905974208473,496.7076023964849
94.79,306.54138731706354,306.73068924783166,316.07196816906355,548.7056480867832,326.31327620380006,345.2785869090636,492.5515087481321
94.8,306.54138731706354,306.6632639750815,316.07196816906355,550.664342319677,323.96284230449254,346.804500539849,491.19204005076807
94.81,306.54138731706354,306.56146507405845,316.07196816906355,550.4051884048192,319.3893870991388,346.93135974454464,486.43433104811686
94.82,306.54138731706354,306.5112727311585,316.07196816906355,551.652778330917,316.2748465659744,349.54210352593583,482.8909799634055
94.83,306.54138731706354,306.4328370755402,316.07196816906355,555.4548262725227,316.07196816906355,351.4385210493268,480.53458791387504
94.84,306.54138731706354,306.33718078759534,316.07196816906355,557.7497389020024,316.07196816906355,352.3563221341363,479.15788833624816
94.85,306.50633117622647,306.3159327162636,316.07196816906355,558.6166507842366,316.07196816906355,352.4698077818299,477.4593010762972
94.86,306.5003955714636,306.25085832012354,316.07196816906355,561.2371485514934,316.07196816906355,352.90649284770666,477.0226160104205
94.87,306.5003955714636,306.18451522945725,316.07196816906355,561.8874559508027,316.07196816906355,353.98933284906354,476.99320238336514
94.88,306.5003955714636,306.12400936336434,316.07196816906355,567.4292140715452,316.07196816906355,353.98933284906354,477.7256879846661
94.89,306.5003955714636,306.0790701126631,316.07196816906355,566.1810646081199,316.07196816906355,354.94519067048805,478.0410661777888
94.9,306.4708958617425,306.042052516799,316.07196816906355,567.0536825413417,316.07196816906355,353.2005122917845,479.34957393702285
94.91,306.45940382586355,306.01837363495315,316.07196816906355,570.745634852615,316.07196816906355,352.9645392090636,480.4927865812994
94.92,306.45940382586355,306.0084946242636,316.07196816906355,572.6858438578306,316.07196816906355,354.85682066532354,481.4974881171936
94.93,306.45940382586355,306.0084946242636,316.07196816906355,572.9916648254666,316.07196816906355,354.4847365409251,485.6413293327866
94.94,306.45940382586355,306.0084946242636,316.07196816906355,576.1313087036364,316.07196816906355,354.03628479447383,484.74442583988406
94.95,306.4759706398478,306.0084946242636,316.07196816906355,577.0003275615944,316.07196816906355,352.9372960949378,487.8338794247412
94.96,306.5158392116184,306.0084946242636,316.07196816906355,578.2800529666555,316.07196816906355,352.5107031968277,489.5402489675942
94.97,306.54138731706354,306.0084946242636,316.07196816906355,580.4687272890635,316.07196816906355,353.8353145633207,491.3373496401583
94.98,306.54138731706354,306.0084946242636,316.07196816906355,580.4687272890635,316.07196816906355,351.38254272153546,491.7461459719161
94.99,306.54138731706354,306.0084946242636,316.07196816906355,582.5565086280263,316.07196816906355,352.8925331087426,493.82565927579145
95.0,306.54138731706354,305.99904807649,316.07196816906355,582.9723493912657,316.07196816906355,351.75374347381626,493.066467552232
95.01,306.54138731706354,305.96750287866354,316.07196816906355,584.4261585415405,316.07196816906355,351.4273487490636,495.4934699331458
95.02,306.54138731706354,305.96750287866354,316.07196816906355,584.0975133699544,316.07196816906355,350.51586244266383,495.4675078110701
95.03,306.51971703075213,305.96750287866354,316.07196816906355,586.4774449293957,316.07196816906355,351.91726569577656,494.3828498257958
95.04,306.45940382586355,305.96750287866354,316.07196816906355,584.2955854846936,316.07196816906355,348.7875951093112,493.9357549061239
95.05,306.45940382586355,305.96750287866354,316.07196816906355,585.6312707712605,316.07196816906355,349.8407181446954,493.3118277446954
95.06,306.45940382586355,305.96750287866354,316.07196816906355,586.0520079985116,316.07196816906355,349.05654400178014,492.5276536017801
95.07,306.45940382586355,305.96750287866354,316.07196816906355,585.1085747751785,316.07196816906355,350.417205558941,489.789140598941
95.08,306.44857585626335,305.96750287866354,316.07196816906355,585.534716764087,316.07196816906355,350.8056638361194,490.1775988761194
95.09,306.4184120802635,305.96750287866354,316.07196816906355,585.3595159938053,316.07196816906355,351.347103307877,489.7744901490636
95.1,306.4184120802635,305.9627580841104,316.07196816906355,582.8020594321067,316.07196816906355,350.06856051467656,489.7744901490636
95.11,306.4184120802635,305.94229705429416,316.07196816906355,582.9847063529767,316.07196816906355,351.2446198447024,487.96854140821176
95.12,306.4184120802635,305.9218647186998,316.07196816906355,583.0307113890635,316.07196816906355,350.14477031850885,486.8698519484186
95.13,306.4184120802635,305.9060152602636,316.07196816906355,581.5089071807746,316.07196816906355,348.8731264360929,485.1603321899162
95.14,306.42921750440377,305.8915349261304,316.07196816906355,581.9457459656973,316.07196816906355,350.12308568508644,484.7436777405269
95.15,306.45940382586355,305.8300022168102,316.07196816906355,581.4448288840526,316.07196816906355,349.89015828906355,485.1558989326296
95.16,306.45940382586355,305.7736098723883,316.07196816906355,580.1113346062881,316.07196816906355,349.89015828906355,484.2672101855452
95.17,306.45940382586355,305.7322676473634,316.07196816906355,580.4512361112161,316.07196816906355,348.8901626055643,482.6381326286083
95.18,306.45940382586355,305.6961928616481,316.07196816906355,578.213599198276,316.07196816906355,348.50046227849424,481.5062255077682
95.19,306.45940382586355,305.6610157951615,316.07196816906355,573.8075686290636,318.5826859424289,350.40255510906354,480.5513473890636
95.2,306.45940382586355,305.5905858274588,316.07196816906355,573.8075686290636,317.2434097789476,350.40255510906354,480.5513473890636
95.21,306.45940382586355,305.55640895956486,316.07196816906355,574.2778033891267,318.50746403966565,349.94753853455444,481.9163991621783
95.22,306.4432428301607,305.5237221416234,316.07196816906355,572.4268334140822,318.6339522690636,349.89015828906355,482.0885378490635
95.23,306.39791620746354,305.4734129722485,316.07196816906355,570.1721910754802,317.6577584426469,348.8653646490636,484.6440022119259
95.24,306.39791620746354,305.4069059145998,316.07196816906355,568.8249645629397,319.0049849551874,348.8653646490636,483.745830024497
95.25,306.3926590160904,305.33721174873074,316.07196816906355,571.6732022208137,317.7504571761468,346.81577736906354,484.21530233809193
95.26,306.3724869780806,305.2911390762636,316.07196816906355,570.3649445112278,319.9308860089274,346.81577736906354,486.3961021461703
95.27,306.3569244618636,305.2625329865966,316.07196816906355,568.6989354410924,321.24194140515044,345.80434703812915,487.7302481926898
95.28,306.3569244618636,305.22965145786355,316.07196816906355,569.1362271848042,322.5538145866982,347.9407958270556,488.5848277082603
95.29,306.3569244618636,305.22965145786355,316.07196816906355,567.8508838610087,321.74837392616564,345.2785869090636,490.9385143025812
95.3,306.3569244618636,305.22965145786355,316.07196816906355,564.4403460320415,322.17469012999294,345.2785869090636,493.0696567100397
95.31,306.3462297154365,305.22488411785025,316.07196816906355,564.0720290490635,319.95026075748524,344.8392619747701,493.3612678890636
95.32,306.3159327162636,305.2091555850635,316.07196816906355,564.9860486453415,321.02977632827395,343.43952298652874,496.4568271944278
95.33,306.3159327162636,305.2140090077426,316.07196816906355,563.594712964948,319.693826644948,342.7444505514369,497.9171417347296
95.34,306.3159327162636,305.22965145786355,316.07196816906355,564.4592637226358,321.0081941742156,343.5481593107179,500.4675087740265
95.35,306.3159327162636,305.23933985693617,316.07196816906355,564.0806557619251,321.1959363690636,340.7415446713262,501.5471944605595
95.36,306.3159327162636,305.2706432034635,316.07196816906355,564.990621274563,321.1959363690636,340.6670155290636,504.2357159800521
95.37,306.326857016466,305.2706432034635,316.07196816906355,563.0221402624072,320.1836903023917,342.1702914683414,504.1329066325
95.38,306.3569244618636,305.27548842779345,316.07196816906355,560.337355140526,321.5260818385387,342.56961665727835,506.31406101917776
95.39,306.3569244618636,305.2960314411009,316.07196816906355,560.0051354887236,317.09676180906354,342.220444869083,506.2036661491025
95.4,306.3569244618636,305.31163494906355,316.07196816906355,563.5832332265928,317.09676180906354,340.9208118227714,507.88238061078647
95.41,306.3569244618636,305.32106100096433,316.07196816906355,562.678752409516,316.16791139922765,341.11400182060964,508.2207756690635
95.42,306.3569244618636,305.3526266946636,316.07196816906355,563.0071372835176,317.0165635083844,342.5514880577868,507.7634164162934
95.43,306.3569244618636,305.3526266946636,316.07196816906355,563.592296501545,316.61702926154493,341.705727916282,506.1781467378792
95.44,306.3569244618636,305.35748216692986,316.07196816906355,564.4674579725812,317.4921907325812,343.3362606801878,506.993413119832
95.45,306.3569244618636,305.36826914478456,316.07196816906355,563.1174358229908,316.07196816906355,341.7253014748061,505.6492220460533
95.46,306.3569244618636,305.3526266946636,316.07196816906355,564.88956842331,316.07196816906355,344.8259294095137,504.76332893601887
95.47,306.3460780459778,305.3429218988928,316.07196816906355,565.6743799878693,316.07196816906355,342.71660280906355,503.6153878938873
95.48,306.3159327162636,305.31163494906355,316.07196816906355,567.420486928907,316.07196816906355,342.71660280906355,504.3602284073121
95.49,306.3105013099715,305.30677537762267,316.07196816906355,567.6588067890635,316.07196816906355,344.29796187494753,497.9581170836313
95.5,306.2954368434636,305.2911390762636,316.07196816906355,567.6588067890635,316.07196816906355,345.60752722121805,497.5215939351496
95.51,306.2954368434636,305.2863635379012,316.07196816906355,567.6588067890635,316.07196816906355,345.3106486028846,496.0194370705267
95.52,306.2900300322189,305.27547408068256,316.07196816906355,569.5568270897077,316.07196816906355,344.3577237408577,495.92325198906354
95.53,306.2640863564287,305.27658905616283,316.07196816906355,571.8064909808065,316.07196816906355,345.27190525453074,494.3760390472644
95.54,306.2122912362758,305.2199794554893,316.07196816906355,573.1514240051807,316.07196816906355,344.3755776956539,493.0315466841554
95.55,306.14753042698965,305.1846917112895,316.07196816906355,572.917721865166,316.07196816906355,346.2897057027314,489.8018377921407
95.56,306.1288094967742,305.1681638394636,316.07196816906355,575.0570236795861,316.07196816906355,345.89064491055353,490.5999614260836
95.57,306.0590599920484,305.1681638394636,316.07196816906355,578.7685597973198,316.07196816906355,348.3402439912293,488.7242488333951
95.58,305.9991731013141,305.1037227657931,316.07196816906355,576.205274209397,316.07196816906355,347.97399709140427,487.99175298415776
95.59,305.95297745361023,305.03828354311725,316.07196816906355,573.0793871610506,316.07196816906355,347.81413953150064,487.7249028690636
95.6,305.91342246869345,304.9926802261372,316.07196816906355,577.7850714897736,316.07196816906355,347.0325970586529,487.7249028690636
95.61,305.8914447442901,304.92745211095126,316.07196816906355,578.4191400090635,316.07196816906355,347.7379932648741,489.10822671277936
95.62,305.81700578386767,304.85697295315384,316.07196816906355,580.2644777182625,316.07196816906355,347.8405710090636,489.70932762067054
95.63,305.7830400234636,304.8101931730752,316.07196816906355,581.4967654257277,316.07196816906355,346.34044938460966,489.2744502907747
95.64,305.7710048469554,304.7707181220624,316.07196816906355,581.9466252386404,316.07196816906355,346.30338054906355,491.8400785569585
95.65,305.7267317121201,304.72163050670633,316.07196816906355,582.1163638588209,316.07196816906355,348.3378972137937,494.8959476046455
95.66,305.66533427556044,304.66902170040333,316.07196816906355,583.8497510611988,316.07196816906355,345.857796175217,494.4825970899516
95.67,305.61093003080015,304.6147752738636,316.07196816906355,584.6315948233768,316.07196816906355,345.2785869090636,495.9350043225271
95.68,305.54951004878035,304.587921581321,316.07196816906355,586.373489862554,316.07196816906355,345.2785869090636,497.4560665802208
95.69,305.4976124492635,304.5532876554636,316.07196816906355,585.0029882368618,316.07196816906355,345.7386044765359,500.5872026215913
95.7,305.4672273178375,304.5454172403084,316.07196816906355,584.1497163579761,316.07196816906355,344.8850292587325,501.4407778393946
95.71,305.43155425122904,304.5327917826636,316.07196816906355,584.5234483505476,316.1275345298116,344.2738792244076,503.5288584181003
95.72,305.39361844026354,304.5327917826636,316.07196816906355,582.6161024277797,318.5117189828589,342.8347143752481,505.50130948081744
95.73,305.38402432220585,304.5327917826636,316.07196816906355,585.6764457244989,323.4130261695216,346.1809771471147,506.2629914529221
95.74,305.3635837882625,304.5148517452017,316.07196816906355,586.9889337822308,326.0379981858105,342.68093794080426,508.8880208576549
95.75,305.3526266946636,304.4918000370636,316.07196816906355,586.7322496200453,329.73856901159616,343.59315185068846,510.295070723724
95.76,305.3526266946636,304.4778976865434,316.07196816906355,588.0034938329417,333.55229755111054,341.1643314858573,510.6998744594604
95.77,305.34305922124054,304.4508082914636,316.07196816906355,588.8365424341357,333.2352632914655,342.1461575781194,512.3199502290636
95.78,305.32259204266245,304.4508082914636,316.07196816906355,591.3900043502256,337.0654561656002,340.5920969652177,512.3199502290636
95.79,305.31163494906355,304.4508082914636,316.07196816906355,589.4151163282323,341.84890388531375,342.0961906898203,516.4731334634788
95.8,305.31163494906355,304.4508082914636,316.07196816906355,591.9711525259459,343.5529287003185,340.3918440896126,517.3253047139954
95.81,305.2959023171023,304.4508082914636,316.07196816906355,593.6586966096321,347.0193608239987,341.06105278281814,517.4439184290635
95.82,305.2706432034635,304.4508082914636,316.07196816906355,592.8738973425965,350.0796139388776,341.6234902762593,518.3320742834551
95.83,305.2706432034635,304.4508082914636,316.07196816906355,596.8100907716781,354.1276697425272,341.69752956716206,520.0059025290635
95.84,305.25155334753765,304.4149077206671,316.07196816906355,595.9552550576975,356.2647600522722,342.5738490550116,520.0059025290635
95.85,305.22965145786355,304.3614688315156,316.07196816906355,595.9278336294784,358.7753077098933,341.6801429182658,520.0136786632039
95.86,305.2244004152522,304.3389930574032,316.07196816906355,597.2248473032462,361.3693350574289,340.38308825275243,520.8783831399376
95.87,305.2091555850635,304.3024427674389,316.07196816906355,598.3937494744903,364.26386674319616,341.6576384499314,519.5276764281957
