Time[s],Signal A,Signal B,Signal C,Sensor A,Sensor B,Sensor C,Sensor D
71.4,321.76247713623934,316.07196816906355,329.6535951725546,595.8406318890635,378.3103770343622,354.7787375387174,434.1540756356481
71.41,321.7076219822774,316.07196816906355,329.66073183546354,592.0211583564034,382.2510734066981,355.9857620333695,435.9462450012165
71.42,321.6599875243029,316.07196816906355,329.6740910453546,595.2589754156978,383.17616282387513,354.08440910380824,434.9955685364359
71.43,321.5910742511875,316.07196816906355,329.707970723093,593.2786477890636,387.16392591850894,353.06680541598644,435.6138265394479
71.44,321.49524989708567,316.07196816906355,329.72221945386354,593.2786477890636,389.7301813584005,353.9223830805623,436.89719406110544
71.45,321.40811374346373,316.07196816906355,329.7452814099381,594.7892694491529,388.95208629135766,354.41354002757976,436.7056929231859
71.46,321.29822102227195,316.07196816906355,329.7632111994636,591.1332914938182,389.76452629245136,353.66889627453384,438.56730435538793
71.47,321.2156943904428,316.07196816906355,329.78988862750003,593.3846852365816,391.9597162528226,354.9716467430983,439.1321644609941
71.48,321.141083264689,316.07196816906355,329.80420294506354,594.1024896441959,392.3186194814234,354.6125918450388,439.85027220752585
71.49,321.08628959834545,316.07196816906355,329.80420294506354,596.8189675341878,397.2169506673555,355.0141264890636,438.5848160291083
71.5,321.0729611322636,316.07196816906355,329.81608235293845,593.0716456225454,398.4660572880405,355.0141264890636,439.0010503131053
71.51,321.0312499815283,316.07196816906355,329.8380272839454,590.9223520701353,400.9465456986132,353.0755735503703,438.5348081490636
71.52,321.0114735138636,316.07196816906355,329.8451946906636,593.2280024873747,404.6355855463615,354.9200934742444,438.5348081490636
71.53,320.95573293819666,316.07196816906355,329.8451946906636,593.9810188044595,405.0332403216652,355.47543324693504,437.9202291552192
71.54,320.9294900226636,316.07196816906355,329.8451946906636,595.2637448052983,407.17111767292585,355.04793648083444,437.0652397221926
71.55,320.90556519034413,316.07196816906355,329.8451946906636,595.5425399150604,411.79510750225535,354.2090732005269,436.3973243185607
71.56,320.88849827706355,316.07196816906355,329.8451946906636,593.5062770019676,414.6458743508328,356.07478585687625,435.65104089569087
71.57,320.84662930810777,316.07196816906355,329.88534610547873,594.5150777124218,415.3349189497341,355.0992704438493,434.8628864542778
71.58,320.82701065866354,316.07196816906355,329.9066823090636,595.9499527754042,417.8459482603661,355.8166956778168,434.1454612203103
71.59,320.7855311112909,316.07196816906355,329.9066823090636,597.5675833873823,419.5697597909719,354.2956641639324,432.2839358707739
71.6,320.7655230402636,316.07196816906355,329.91858221281126,598.8466529245136,422.9806091572058,356.8533215851843,431.43138339702335
71.61,320.7655230402636,316.07196816906355,329.92717818186355,597.4591786665559,422.8132173144609,356.5513169490636,428.79926856906354
71.62,320.7655230402636,316.07196816906355,329.92717818186355,598.3834441496464,424.66175237981656,356.5513169490636,428.79926856906354
71.63,320.7236786663551,316.07196816906355,329.92717818186355,597.3146130773483,424.8265146020812,355.7303445161232,427.2620781090636
71.64,320.6901228234069,316.07196816906355,329.92717818186355,596.8866080136023,425.682522679986,357.4420737297134,427.2620781090636
71.65,320.6696105539087,316.07196816906355,329.92717818186355,598.1897704492102,424.0678762670875,357.6644744454662,427.1737142526609
71.66,320.6214309057177,316.07196816906355,329.92717818186355,600.2243527007332,423.2540445962306,358.4105262649735,426.4276624331536
71.67,320.57372266260114,316.07196816906355,329.94052304464367,603.0673536631067,421.4854762281914,357.7905158648371,424.7000940090636
71.68,317.55677937653587,316.07196816906355,329.9476740546636,603.4262589412948,423.99781932426976,359.5847963053039,424.7000940090636
71.69,316.07196816906355,316.07196816906355,329.9476740546636,603.504174001744,420.4784217660998,360.03965301200515,424.6016523320052
71.7,316.07196816906355,316.07196816906355,329.9476740546636,606.8438453009181,419.6435059908935,359.2048868566704,423.7668861766704
71.71,316.07196816906355,316.07196816906355,330.0143922198021,606.1292587453335,416.9734512527937,358.6282580209025,423.6753003690636
71.72,316.07196816906355,316.07196816906355,330.0768902847312,606.591547255512,416.5111627426152,359.0904870930499,423.6753003690636
71.73,316.07196816906355,316.07196816906355,330.1446332435097,606.0169782549603,414.2002674315261,359.1638602680866,423.62474115004056
71.74,316.07196816906355,316.07196816906355,330.207352663865,609.0139790567913,412.4876958375638,359.5921645715755,423.1964368465517
71.75,316.07196816906355,316.07196816906355,330.2921071970676,608.7697215422845,408.5774542826215,358.6887864324554,421.5817719873677
71.76,316.07196816906355,316.07196816906355,330.37637802767205,609.5837089817747,406.94947940364113,359.4347316734241,421.2088003916769
71.77,316.07196816906355,316.07196816906355,330.4652604296565,608.8619242756627,406.0952790617174,359.5831955776382,423.6753003690636
71.78,316.07196816906355,316.07196816906355,330.5930357998663,610.2967337518521,405.0191719545753,359.224538299511,423.6753003690636
71.79,316.07196816906355,316.07196816906355,330.701083892506,607.6644508577353,399.5314184090735,360.1380946890636,423.6753003690636
71.8,316.07196816906355,316.07196816906355,330.80646137292,611.4093706530857,399.11531529866255,360.1380946890636,423.6753003690636
71.81,316.07196816906355,316.07196816906355,330.9028698593966,611.6045364530618,398.01532640053387,360.6773062594478,423.0556445475266
71.82,316.07196816906355,316.07196816906355,331.0115020844111,610.2184005755978,397.55328179124166,361.1392668356616,421.207798143497
71.83,316.07196816906355,316.07196816906355,331.1212861774771,610.8846947556913,394.284126542436,361.6257445749187,421.4770934162162
71.84,316.07196816906355,316.07196816906355,331.21400950602424,612.1406039565585,393.02821734156856,361.2071942572953,420.2214404137589
71.85,316.07196816906355,316.07196816906355,331.3169069858294,613.0235579584333,395.5531162093243,361.206759744792,421.02557343760674
71.86,316.07196816906355,316.07196816906355,331.4797200505908,611.3966673111241,395.9598383587548,361.5797272413081,420.2796384445744
71.87,316.07196816906355,316.07196816906355,331.6530659443841,612.2373301290636,393.09047560478587,361.8034355937456,420.5154865024713
71.88,316.07196816906355,316.07196816906355,331.8154711412767,612.2373301290636,394.1665622160552,362.87939103142895,419.7981821941533
71.89,316.07196816906355,316.07196816906355,331.9646155084677,611.9924146970399,395.615934009869,363.1632547705344,419.5761258090636
71.9,316.07196816906355,316.07196816906355,332.1212654642781,610.3280370983795,396.4481217844056,362.7472274948527,419.5761258090636
71.91,316.07196816906355,316.07196816906355,332.2883826623275,611.7249333090635,396.63871905433456,361.8367844283785,417.3919544299096
71.92,316.07196816906355,316.07196816906355,332.4124564779096,611.7249333090635,398.02461922926136,364.6070865299303,415.08337105327246
71.93,316.07196816906355,316.07196816906355,332.50160942541504,611.4103790500275,397.3452199880997,364.9012105029595,413.3263336632705
71.94,316.07196816906355,316.07196816906355,332.5872042894024,609.2707615991661,399.484837438961,366.185192900801,412.4703460812386
71.95,316.07196816906355,316.07196816906355,332.6326333914636,611.5480313813395,398.5272005757775,367.3116501690636,412.5686750309966
71.96,316.07196816906355,316.07196816906355,332.6326333914636,610.325522254787,401.7872249132508,367.3116501690636,409.5805735371355
71.97,316.07196816906355,316.07196816906355,332.6459393120853,609.5173248993628,402.7197051421596,367.9088568611227,405.6566017970045
71.98,316.07196816906355,316.07196816906355,332.67937217979664,608.4407463871464,403.0785632798402,368.62656288854754,404.9388957695796
71.99,316.07196816906355,316.07196816906355,332.6941210098636,608.6505523890636,404.5111079620853,369.6760806999062,403.4942708199062
72.0,316.07196816906355,316.07196816906355,332.6941210098636,608.6505523890636,406.5930397789509,368.0102663405625,401.8284564605625
72.01,316.07196816906355,316.07196816906355,332.66743743306523,609.0015011694308,405.98358270371926,370.8712606296671,399.10742028846
72.02,316.07196816906355,316.07196816906355,332.65312926426355,607.157665807708,408.74933677109686,370.41038428512456,399.56829663300255
72.03,316.07196816906355,316.07196816906355,332.6798456344584,610.0003449848786,409.3281894090636,371.31096268802014,397.9555973280201
72.04,316.07196816906355,316.07196816906355,332.6941210098636,608.7173750831533,409.3281894090636,370.4550775853522,397.09971222535216
72.05,316.07196816906355,316.07196816906355,332.6941210098636,608.0203883335421,409.5637238801066,371.3676276275503,395.240259008556
72.06,316.07196816906355,316.07196816906355,332.6941210098636,607.2050953069545,411.1943078836944,370.993985816819,397.4821180712928
72.07,316.07196816906355,316.07196816906355,332.6941210098636,607.5619591962118,409.9453488332935,371.7968194023314,396.0901408700808
72.08,316.07196816906355,316.07196816906355,332.6941210098636,603.6195452697351,410.6621509927279,370.72163255987806,396.8069307319915
72.09,316.07196816906355,316.07196816906355,332.6715939960691,607.8945395753753,409.3890928950888,371.7762702402621,396.10384031146026
72.1,316.07196816906355,316.07196816906355,332.65312926426355,606.2282312654972,409.8056715097488,370.52656514009135,396.93697499532016
72.11,316.07196816906355,316.07196816906355,332.65312926426355,607.6661417672414,407.2786021290636,372.3545448946159,398.1365328435113
72.12,316.07196816906355,316.07196816906355,332.65312926426355,608.1269422770547,407.2786021290636,370.9716514642288,399.5194262738983
72.13,316.07196816906355,316.07196816906355,332.65312926426355,609.0356739381501,407.98520759178,369.41223937893903,400.6174434690636
72.14,316.07196816906355,316.07196816906355,332.6759678153246,608.1587067807202,405.79278867341134,369.8507137345114,400.6174434690636
72.15,316.07196816906355,316.07196816906355,332.6941210098636,609.4952795385792,403.2716692446,370.85041222785503,401.3699166455191
72.16,316.07196816906355,316.07196816906355,332.6941210098636,608.2432686527184,400.350312560512,370.4330076295212,403.4569396371882
72.17,316.07196816906355,316.07196816906355,332.6941210098636,611.3066514873739,398.0554593690636,370.2566344953153,403.3950871922525
72.18,316.07196816906355,316.07196816906355,332.6941210098636,608.453246819967,398.0554593690636,369.1596093003935,405.22346456670937
72.19,316.07196816906355,316.07196816906355,332.6715980952436,609.471672392288,394.0797744922708,368.996970450551,406.401938310551
72.2,316.07196816906355,316.07196816906355,332.65312926426355,611.6062724534879,394.9336141068333,370.2779440542655,407.6829119142655
72.21,316.07196816906355,316.07196816906355,332.65312926426355,610.7816128130308,392.8500180250963,368.8488406290636,407.2786021290636
72.22,316.07196816906355,316.07196816906355,332.6799419650605,611.7216478206537,391.8935535258369,368.8488406290636,407.2786021290636
72.23,316.07196816906355,316.07196816906355,332.6941210098636,611.3370058749907,389.7326408631364,367.8240469890636,407.01532854377297
72.24,316.07196816906355,316.07196816906355,332.6941210098636,612.1930057545463,388.8766409835808,367.8240469890636,409.1561327056694
72.25,316.07196816906355,316.07196816906355,332.6941210098636,611.7249333090635,388.31991978906353,369.4092490310976,406.8142168910976
72.26,316.07196816906355,316.07196816906355,332.70724041804283,611.7249333090635,388.31991978906353,369.8256534308387,407.2306212908387
72.27,316.07196816906355,316.07196816906355,332.7279576462691,612.5361599544875,385.99699954940274,370.8122489127014,408.2172167727014
72.28,316.07196816906355,316.07196816906355,332.73511275546355,614.5739559588657,387.6272371727402,370.0810238075776,407.4859916675776
72.29,316.07196816906355,316.07196816906355,332.7801278408942,610.3110173256065,388.2582825507921,369.82423101726647,405.4943913109034
72.3,316.07196816906355,316.07196816906355,332.81709624666354,611.1641744276046,387.831703999793,369.3977938877896,403.362209762694
72.31,316.07196816906355,316.07196816906355,332.83044110944365,610.43447216583,388.3610406586622,370.4135037569647,402.1546339290636
72.32,316.07196816906355,316.07196816906355,332.8375921194636,613.2588936195102,388.8323166090636,370.8874236749572,402.1546339290636
72.33,316.07196816906355,316.07196816906355,332.8643064400711,612.365556408475,389.0884289363978,371.9232215490636,399.08025300906354
72.34,316.07196816906355,316.07196816906355,332.901381424379,609.7360302092497,390.8414470857436,371.9232215490636,399.08025300906354
72.35,316.07196816906355,316.07196816906355,332.9195756106636,611.4535966474135,389.2844494142697,371.9232215490636,396.1025695673467
72.36,316.07196816906355,316.07196816906355,332.9457980303239,613.1207678335364,388.86765559294537,371.9232215490636,396.9361572099955
72.37,316.07196816906355,316.07196816906355,332.97394501244014,612.2373301290636,392.0259691616486,374.3136859375368,395.49347526906354
72.38,316.07196816906355,316.07196816906355,332.96793767212245,612.2373301290636,392.8422910810507,372.8488930490282,395.49347526906354
72.39,316.07196816906355,316.07196816906355,332.9605673562636,611.6626852937827,391.1308939005998,374.5852849463587,393.3938473156224
72.4,316.07196816906355,316.07196816906355,332.9605673562636,611.2362481643058,392.83664036891975,375.4378743126804,392.9675536572552
72.41,316.07196816906355,316.07196816906355,332.9739183678055,611.2125364890635,392.4190943490636,376.4708581034512,392.88034371849113
72.42,316.07196816906355,316.07196816906355,332.9944654802875,611.2046291813373,392.4210722007888,374.0349912575515,390.9316494219364
72.43,316.07196816906355,316.07196816906355,333.0015591018636,609.3539051567666,392.9314911690636,374.58736322786064,388.4731571820528
72.44,316.07196816906355,316.07196816906355,333.0015591018636,610.6691191655808,392.9314911690636,375.4638733273272,389.7879202816653
72.45,316.07196816906355,316.07196816906355,333.0015591018636,610.3693854721662,392.02779329432775,376.3891697528196,389.15054987726734
72.46,316.07196816906355,316.07196816906355,333.0015591018636,611.6195496798878,392.8612354162797,375.1390075946853,387.4836656333635
72.47,316.07196816906355,316.07196816906355,333.0015591018636,610.6409393900681,392.9314911690636,377.089817065313,386.9106092282246
72.48,316.07196816906355,316.07196816906355,332.9884499416207,610.2326554551303,392.9314911690636,377.4560660147253,388.0093601756361
72.49,316.07196816906355,316.07196816906355,332.9810632290636,612.1756437006974,392.9314911690636,377.04718974906353,385.5110178102674
72.5,316.07196816906355,316.07196816906355,332.909784732227,611.7486429347186,392.9314911690636,377.04718974906353,383.3759729886278
72.51,316.07196816906355,316.07196816906355,332.81806775103433,611.6433699832559,392.37831166136607,376.15855224166125,384.624216733068
72.52,316.07196816906355,316.07196816906355,332.6897594881317,610.7062023482379,391.9026557429474,378.5237759627812,382.73203980575926
72.53,316.07196816906355,316.07196816906355,332.56564263121675,612.2373301290636,390.755784585376,378.4329321057698,384.3217099480637
72.54,316.07196816906355,316.07196816906355,332.4501934789089,612.2373301290636,389.8779443037648,377.1163387247162,385.1994395519618
72.55,316.07196816906355,316.07196816906355,332.3089728161424,612.7497269490635,387.9269011801872,378.5843802090636,385.1978531714071
72.56,316.07196816906355,316.07196816906355,332.1530279183563,612.7497269490635,388.7593779465302,378.5843802090636,384.78159634195
72.57,316.07196816906355,316.07196816906355,332.0060909566658,613.5158975173114,387.57028529099085,379.01131333866215,383.6656165638629
72.58,316.07196816906355,316.07196816906355,331.903861642314,608.2159947947835,385.93954756835706,378.2799960021108,383.2999578955872
72.59,316.07196816906355,316.07196816906355,331.84052119701283,611.7249333090635,385.4297516746154,379.0967770290636,382.7325829463885
72.6,316.07196816906355,316.07196816906355,331.7416019661182,611.7249333090635,386.7101267988441,379.0967770290636,383.1594361420831
72.61,316.07196816906355,316.07196816906355,331.62312147422324,613.7343117858044,386.2301237058045,379.596513548435,383.695688108435
72.62,316.07196816906355,316.07196816906355,331.49361215317464,613.259492098996,385.7395201473528,379.1086810319858,383.2078555919858
72.63,316.07196816906355,316.07196816906355,331.363612980766,612.6229579262083,382.1077724128423,379.508176336667,382.5320595252624
72.64,316.07196816906355,316.07196816906355,331.26382062569013,611.746757314421,381.6696731317423,378.6317892124373,381.2174788389177
72.65,316.07196816906355,316.07196816906355,331.1378837352705,613.9261634031488,382.895324275595,381.9312722042251,380.5380140109631
72.66,316.07196816906355,316.07196816906355,330.97000204116574,611.4310860303173,380.81609176517713,379.8520417433944,379.70632018696097
72.67,316.07196816906355,316.07196816906355,330.8042847112286,613.9321912393394,380.12157066906354,379.6091738490636,378.6692372216301
72.68,316.07196816906355,316.07196816906355,330.6423693656959,611.4843978450574,380.12157066906354,379.6091738490636,379.4012227236348
72.69,316.07196816906355,316.07196816906355,330.50624192732016,613.0775194923413,381.2280198662988,381.1463643090636,380.3882506684135
72.7,316.07196816906355,316.07196816906355,330.3701821253246,611.7957199049529,378.2371534791969,381.1463643090636,378.2518941109147
72.71,316.07196816906355,316.07196816906355,330.3165997650636,613.4887835271842,377.1288289096005,381.0923330891882,380.0405238392505
72.72,316.07196816906355,316.07196816906355,330.10276837372845,610.202364604719,378.0719833890636,380.145532393954,378.6203217716056
72.73,316.07196816906355,316.07196816906355,329.8951615789627,613.522329122196,378.0719833890636,381.96982084178734,378.0719833890636
72.74,316.07196816906355,316.07196816906355,329.776734376337,611.7680935180059,378.0719833890636,380.21558318800993,378.0719833890636
72.75,316.07196816906355,316.07196816906355,329.6301929849916,613.7146890371858,376.8937822403301,383.93329061304354,379.0967770290636
72.76,316.07196816906355,316.07196816906355,329.4401736986755,613.2988380260102,379.3888842082092,381.4394040504216,379.0967770290636
72.77,316.07196816906355,316.07196816906355,329.24043321989035,616.3160948989294,380.0031680614852,383.0256821257776,377.2174592123496
72.78,316.07196816906355,316.07196816906355,329.0511497354078,612.6461510558688,379.1876249852496,381.5627830559157,378.6803582822114
72.79,316.07196816906355,316.07196816906355,328.86062625062084,612.4834363712969,378.31808963129686,381.8062432809705,377.6579073204724
72.8,316.07196816906355,316.07196816906355,328.66390481389914,614.1894472363759,380.0241004963759,383.0859645868569,378.5110541745343
72.81,316.07196816906355,316.07196816906355,328.4613666484768,615.034178485066,380.4387504494054,381.7066353887498,377.0830964686219
72.82,316.07196816906355,316.07196816906355,328.26969334522585,611.7294444506668,384.22074522906354,383.6590906779633,378.54743844792887
72.83,316.07196816906355,316.07196816906355,328.0987024272173,612.4978572673989,384.0948103882312,380.7344505550528,377.3988804800261
72.84,316.07196816906355,316.07196816906355,327.9617797489768,610.7445173328501,383.2181404209568,381.61096885286855,380.4666945223809
72.85,316.07196816906355,316.07196816906355,327.8406224960942,612.5045532690427,387.14802317080336,382.2078127679791,379.6091738490636
72.86,316.07196816906355,316.07196816906355,327.6906541948166,610.3720396876939,385.8685129724068,382.6342539966304,379.6091738490636
72.87,316.07196816906355,316.07196816906355,327.4849453178721,612.3954906306993,385.7579356890636,382.6412799818263,379.6091738490636
